 16:26:49.,-0.462484,-0.458938,-0.454263,-0.474572,-0.472799,-0.500039,-0.452974,-0.492947,-0.469576,-0.459421,-0.480053,-0.489724,-0.450556,-0.466352,-0.450556,-0.493270,-0.458615,-0.448461,-0.446204,-0.453457,-0.462806,-0.462161,-0.451846,-0.474895,-0.515997,-0.490046,-0.528569,-0.539368,-0.510839,-0.504875,-0.530342,-0.517608,-0.504714,-0.550651,-0.516158,-0.530987,-0.500039,-0.506487,-0.503585,-0.503585,-0.516641,-0.501329,-0.547750,-0.551296,-0.497783,-0.502457,-0.509710,-0.513095,-0.552585,-0.550168,-0.501168,-0.546460,-0.539207,-0.493592,-0.538240,-0.510194,-0.510355,-0.519543,-0.508421,-0.513901,-0.548395,-0.523250,-0.515997,-0.523089,-0.516319,-0.557743,-0.515674,-0.547427,-0.504875,-0.527118,-0.486661,-0.509872,-0.510194,-0.499878,-0.552746,-0.519865,-0.531793,-0.520349,-0.525668,-0.551135,-0.528569,-0.519543,-0.504553,-0.539368,-0.504391,-0.485855,-0.529858,-0.497783,-0.487145,-0.471510,-0.507776,-0.481826,-0.476023,-0.425411,-0.430247,-0.418964,-0.361422,-0.344336,-0.324188,-0.298238,-0.292596,-0.302106,-0.284215,-0.246981,-0.233442,-0.230218,-0.271159,-0.248916,-0.259715,-0.285343,-0.249883,-0.249721,-0.318547,-0.295820,-0.338050,-0.342886,-0.402040,-0.451362,-0.513095,-0.513901,-0.577246,-0.648973,-0.740364,-0.771634,-0.827726,-0.901709,-0.914765,-0.990038,-0.987298,-1.052577,-1.049837,-1.029528,-1.071436,-1.017600,-1.014377,-1.019696,-0.990199,-0.956834,-0.959574,-0.944584,-0.934107,-0.938781,-0.912025,-0.876403,-0.849808,-0.858028,-0.790815,-0.780338,-0.784206,-0.739236,-0.759384,-0.740848,-0.717960,-0.685884,-0.662029,-0.659289,-0.677825,-0.660901,-0.638980,-0.599329,-0.587562,-0.613513,-0.555325,-0.538079,-0.531309,-0.551618,-0.508421,-0.532276,-0.468447,-0.469092,-0.486178,-0.456359,-0.455069,-0.448783,-0.450073,-0.440079,-0.438951,-0.478441,-0.463128,-0.448138,-0.427829,-0.463612,-0.424122,-0.401718,-0.417352,-0.404780,-0.447494,-0.417513,-0.404941,-0.404619,-0.414290,-0.452813,-0.407681,-0.453780,-0.405425,-0.449105,-0.447816,-0.404780,-0.411550,-0.415579,-0.437823,-0.448300,-0.381086,-0.436694,-0.398655,-0.394303,-0.436856,-0.431859,-0.447010,-0.407842,-0.415096,-0.442819,-0.400750,-0.436856,-0.437017,-0.387695,-0.419931,-0.426217,-0.382698,-0.394303,-0.375445,-0.377218,-0.396076,-0.406069,-0.388662,-0.417352,-0.426862,-0.388984,-0.429119,-0.415418,-0.393658,-0.411066,-0.392691,-0.429763,-0.396398,-0.377862,-0.384310,-0.426056,-0.407842,-0.429602,-0.393336,-0.422671,-0.400106,-0.422510,-0.388017,-0.385760,-0.442013,-0.430731,-0.397043,-0.378024,-0.372382,-0.438145,-0.381408,-0.411550,-0.417836,-0.396721,-0.401718,-0.396237,-0.394303,-0.423155,-0.389468,-0.410421,-0.368030,-0.393658,-0.423961,-0.430569,-0.408487,-0.418803,-0.383987,-0.406714,-0.362228,-0.369642,-0.384149,-0.380280,-0.387050,-0.381247,-0.397043,-0.387856,-0.392691,-0.415740,-0.378507,-0.372704,-0.371093,-0.395754,-0.396560,-0.381086,-0.370448,-0.390757,-0.381892,-0.372704,-0.397527,-0.363678,-0.364968,-0.403007,-0.364645,-0.374800,-0.372543,-0.396398,-0.360938,-0.348688,-0.400267,-0.390435,-0.376089,-0.347560,-0.333537,-0.354652,-0.345787,-0.340951,-0.350784,-0.388662,-0.386889,-0.336116,-0.344336,-0.346754,-0.382537,-0.358682,-0.371899,-0.319997,-0.328863,-0.333859,-0.299044,-0.364323,-0.305652,-0.325317,-0.325800,-0.325155,-0.367063,-0.334665,-0.369803,-0.368997,-0.325639,-0.313550,-0.330474,-0.363033,-0.313550,-0.334826,-0.310165,-0.354491,-0.322093,-0.312905,-0.330474,-0.325800,-0.335471,-0.360777,-0.364001,-0.333215,-0.331119,-0.366257,-0.329185,-0.371254,-0.368836,-0.328863,-0.337566,-0.318224,-0.316613,-0.332086,-0.348043,-0.337566,-0.362066,-0.355135,-0.387695,-0.358037,-0.367547,-0.380602,-0.361905,-0.411872,-0.361744,-0.367385,-0.364806,-0.359165,-0.418481,-0.378185,-0.409454,-0.389629,-0.394464,-0.446043,-0.412839,-0.434115,-0.415257,-0.433954,-0.411711,-0.467480,-0.427990,-0.463934,-0.418158,-0.439918,-0.461517,-0.432826,-0.454747,-0.441369,-0.465063,-0.454102,-0.462161,-0.489079,-0.517447,-0.479569,-0.508421,-0.519220,-0.508260,-0.534210,-0.501974,-0.467158,-0.540013,-0.522928,-0.527602,-0.488918,-0.536950,-0.540819,-0.514224,-0.565480,-0.555003,-0.535822,-0.522766,-0.566931,-0.527441,-0.521638,-0.570315,-0.532921,-0.516319,-0.572572,-0.518576,-0.514868,-0.568220,-0.539529,-0.534049,-0.536950,-0.589658,-0.580631,-0.544687,-0.566931,-0.546138,-0.556131,-0.553391,-0.586756,-0.587401,-0.564513,-0.525184,-0.542914,-0.558227,-0.534533,-0.579664,-0.580309,-0.540819,-0.544365,-0.585789,-0.545654,-0.569187,-0.545010,-0.539529,-0.541786,-0.539207,-0.530342,-0.538562,-0.536306,-0.523572,-0.565802,-0.518576,-0.580631,-0.537756,-0.534533,-0.527924,-0.580148,-0.538401,-0.580148,-0.580954,-0.528569,-0.525184,-0.574506,-0.499395,-0.536628,-0.523089,-0.499878,-0.550973,-0.518576,-0.528730,-0.571766,-0.551779,-0.535016,-0.580309,-0.537756,-0.583371,-0.543720,-0.528247,-0.569026,-0.540658,-0.507776,-0.522605,-0.501812,-0.532921,-0.557098,-0.571927,-0.564996,-0.527924,-0.577246,-0.576279,-0.526796,-0.549684,-0.520510,-0.563868,-0.544687,-0.504230,-0.527118,-0.501651,-0.553552,-0.539207,-0.529375,-0.510516,-0.560000,-0.565964,-0.509066,-0.568381,-0.529697,-0.572089,-0.582404,-0.564835,-0.517447,-0.511806,-0.535822,-0.509549,-0.492141,-0.489885,-0.485372,-0.512773,-0.491336,-0.510678,-0.516480,-0.509227,-0.544204,-0.513418,-0.534694,-0.552585,-0.518092,-0.521960,-0.502618,-0.496171,-0.460872,-0.497783,-0.514707,-0.502457,-0.500362,-0.505036,-0.501974,-0.504230,-0.506003,-0.507776,-0.516964,-0.507454,-0.541141,-0.548717,-0.497944,-0.495526,-0.489079,-0.476184,-0.482470,-0.482632,-0.484405,-0.490368,-0.488112,-0.534049,-0.493431,-0.512612,-0.512934,-0.507454,-0.543398,-0.537595,-0.547911,-0.517125,-0.505681,-0.485694,-0.527602,-0.487467,-0.537756,-0.521155,-0.529697,-0.501168,-0.533566,-0.511483,-0.519381,-0.546138,-0.557904,-0.551779,-0.513740,-0.540819,-0.504069,-0.549200,-0.486339,-0.515191,-0.545654,-0.489401,-0.526796,-0.528730,-0.533888,-0.549200,-0.526957,-0.534049,-0.519220,-0.555325,-0.514707,-0.510678,-0.510678,-0.537918,-0.497944,-0.530987,-0.483599,-0.507937,-0.477313,-0.531148,-0.514224,-0.498105,-0.500684,-0.506164,-0.508260,-0.514062,-0.543075,-0.548072,-0.499556,-0.509227,-0.529536,-0.510516,-0.492786,-0.499072,-0.495043,-0.539207,-0.505359,-0.501812,-0.511483,-0.548395,-0.506326,-0.553230,-0.496977,-0.531954,-0.505036,-0.513257,-0.507454,-0.541141,-0.510033,-0.489563,-0.523895,-0.480375,-0.525184,-0.540013,-0.495688,-0.514385,-0.550973,-0.544365,-0.516158,-0.496010,-0.502941,-0.501812,-0.544365,-0.536467,-0.495849,-0.522444,-0.528891,-0.502135,-0.505359,-0.532115,-0.503747,-0.532599,-0.538079,-0.505197,-0.501490,-0.545977,-0.493270,-0.542270,-0.542592,-0.502457,-0.506326,-0.519220,-0.511483,-0.483599,-0.485372,-0.486339,-0.494882,-0.493753,-0.496655,-0.545977,-0.500845,-0.538401,-0.498911,-0.487790,-0.505197,-0.491819,-0.483438,-0.488757,-0.495043,-0.478441,-0.516319,-0.488273,-0.498266,-0.488757,-0.484566,-0.526635,-0.489885,-0.489079,-0.529858,-0.486339,-0.481020,-0.531470,-0.533566,-0.479730,-0.467480,-0.510355,-0.477151,-0.468447,-0.512451,-0.463773,-0.482470,-0.489885,-0.520671,-0.487306,-0.529214,-0.492141,-0.528730,-0.489079,-0.484888,-0.495849,-0.503424,-0.471994,-0.524701,-0.514385,-0.496171,-0.481020,-0.511161,-0.484566,-0.533888,-0.487306,-0.537434,-0.531793,-0.502457,-0.499395,-0.494720,-0.487306,-0.478280,-0.495043,-0.479730,-0.465385,-0.483599,-0.462484,-0.483921,-0.523733,-0.489079,-0.484888,-0.490530,-0.519704,-0.483438,-0.525506,-0.527441,-0.475701,-0.484566,-0.473122,-0.467642,-0.496171,-0.462484,-0.448783,-0.462484,-0.463451,-0.439112,-0.466352,-0.503747,-0.463451,-0.467642,-0.464418,-0.467964,-0.465869,-0.468286,-0.445237,-0.492303,-0.445721,-0.448783,-0.493753,-0.437339,-0.452490,-0.491980,-0.491658,-0.458776,-0.459905,-0.452813,-0.462484,-0.459260,-0.470704,-0.456681,-0.463290,-0.441530,-0.477957,-0.446204,-0.466997,-0.436856,-0.469415,-0.475378,-0.475862,-0.452813,-0.479892,-0.482793,-0.461839,-0.439112,-0.495043,-0.457648,-0.445237,-0.477635,-0.440402,-0.441046,-0.426056,-0.456036,-0.424767,-0.460549,-0.425573,-0.423316,-0.480375,-0.440240,-0.445076,-0.441691,-0.445882,-0.445721,-0.446043,-0.454586,-0.470704,-0.461839,-0.492303,-0.434277,-0.451523,-0.467964,-0.471026,-0.520349,-0.526957,-0.492141,-0.490046,-0.503908,-0.495688,-0.503263,-0.501651,-0.495849,-0.498428,-0.514224,-0.488434,-0.476023,-0.514707,-0.529052,-0.495365,-0.548395,-0.507776,-0.497461,-0.508099,-0.504391,-0.508421,-0.508099,-0.502296,-0.510839,-0.501168,-0.504230,-0.496977,-0.505359,-0.497138,-0.491980,-0.511483,-0.506970,-0.539691,-0.515674,-0.505681,-0.512773,-0.554036,-0.540335,-0.506164,-0.516964,-0.559839,-0.508905,-0.534694,-0.499717,-0.516641,-0.547105,-0.502296,-0.534694,-0.505520,-0.513257,-0.504069,-0.558066,-0.558388,-0.519543,-0.523089,-0.545010,-0.508421,-0.505520,-0.483599,-0.481020,-0.498589,-0.471188,-0.452007,-0.456681,-0.416869,-0.367385,-0.398977,-0.378991,-0.349333,-0.310326,-0.298077,-0.281636,-0.285504,-0.298399,-0.287761,-0.288728,-0.224899,-0.231024,-0.236182,-0.257781,-0.224577,-0.252945,-0.283570,-0.306458,-0.332570,-0.354652,-0.349978,-0.403007,-0.445721,-0.502618,-0.621411,-0.676535,-0.701035,-0.755999,-0.788558,-0.905578,-0.882689,-0.953933,-1.001482,-0.990038,-1.007929,-1.051933,-1.100610,-1.098354,-1.060959,-1.037104,-1.051933,-1.019212,-1.027916,-1.003739,-0.987943,-0.920407,-0.900097,-0.893328,-0.853032,-0.850292,-0.853838,-0.802904,-0.789525,-0.779210,-0.771150,-0.745522,-0.715058,-0.764703,-0.744555,-0.730048,-0.672667,-0.659450,-0.681049,-0.618187,-0.614963,-0.599167,-0.609322,-0.609000,-0.596105,-0.536145,-0.531309,-0.523572,-0.552908,-0.533566,-0.538724,-0.485533,-0.518898,-0.515835,-0.445076,-0.456842,-0.443142,-0.439112,-0.436050,-0.447171,-0.434921,-0.471671,-0.478924,-0.425250,-0.462645,-0.470382,-0.469415,-0.473767,-0.471026,-0.459099,-0.415579,-0.407842,-0.417352,-0.400589,-0.401234,-0.403329,-0.418803,-0.422349,-0.410905,-0.421382,-0.425250,-0.412517,-0.417352,-0.419125,-0.411550,-0.409454
 16:26:50.,-0.415740,-0.440240,-0.408165,-0.400267,-0.399300,-0.445237,-0.391885,-0.429925,-0.424444,-0.398655,-0.444592,-0.414290,-0.433954,-0.414290,-0.444754,-0.402362,-0.393014,-0.444915,-0.396882,-0.395915,-0.399300,-0.408326,-0.433309,-0.439434,-0.396237,-0.427829,-0.415096,-0.396237,-0.443625,-0.441207,-0.445721,-0.403329,-0.422349,-0.387533,-0.441207,-0.432020,-0.380119,-0.375283,-0.390112,-0.386727,-0.428796,-0.392208,-0.395754,-0.434277,-0.401234,-0.385116,-0.422833,-0.401073,-0.387211,-0.398816,-0.420415,-0.421704,-0.374639,-0.407681,-0.362711,-0.373994,-0.411066,-0.415096,-0.424122,-0.383504,-0.386083,-0.416546,-0.384471,-0.387372,-0.407037,-0.378829,-0.370931,-0.414773,-0.383665,-0.353685,-0.372866,-0.399139,-0.413645,-0.365774,-0.355135,-0.403329,-0.375283,-0.384310,-0.375767,-0.383504,-0.370126,-0.367708,-0.376734,-0.360455,-0.359004,-0.357231,-0.362389,-0.405747,-0.322899,-0.344497,-0.365935,-0.399944,-0.356103,-0.361905,-0.393820,-0.367869,-0.377218,-0.392047,-0.342724,-0.348366,-0.334182,-0.386889,-0.338695,-0.369158,-0.345142,-0.336277,-0.324833,-0.360938,-0.359487,-0.328863,-0.375928,-0.340145,-0.330636,-0.325155,-0.325800,-0.328057,-0.369481,-0.322576,-0.314678,-0.314356,-0.352718,-0.308876,-0.337405,-0.325155,-0.328218,-0.330474,-0.319997,-0.350139,-0.358198,-0.311777,-0.322415,-0.339340,-0.341274,-0.319675,-0.319353,-0.312099,-0.353040,-0.313711,-0.308392,-0.329185,-0.367063,-0.307586,-0.335632,-0.327090,-0.334665,-0.351589,-0.318547,-0.332570,-0.327734,-0.331280,-0.326928,-0.334988,-0.338695,-0.357231,-0.356103,-0.321126,-0.328218,-0.384632,-0.345303,-0.350784,-0.362389,-0.366580,-0.407681,-0.418158,-0.382053,-0.387856,-0.384793,-0.381408,-0.383665,-0.388339,-0.423800,-0.438951,-0.397688,-0.397043,-0.451201,-0.431375,-0.430731,-0.432020,-0.440885,-0.482470,-0.500684,-0.509227,-0.454425,-0.504714,-0.472961,-0.453135,-0.506809,-0.454102,-0.473283,-0.462484,-0.481826,-0.488595,-0.502296,-0.504391,-0.536467,-0.513418,-0.532437,-0.558388,-0.507454,-0.546460,-0.514224,-0.551457,-0.502941,-0.544365,-0.520510,-0.514062,-0.563062,-0.537756,-0.531309,-0.542431,-0.548717,-0.549684,-0.549362,-0.555487,-0.591914,-0.588207,-0.587240,-0.545654,-0.539368,-0.525829,-0.570799,-0.566931,-0.577891,-0.587723,-0.601102,-0.578697,-0.586111,-0.548233,-0.574990,-0.564835,-0.607065,-0.566125,-0.597878,-0.561773,-0.608355,-0.589335,-0.557421,-0.579181,-0.580148,-0.548072,-0.589335,-0.604809,-0.617220,-0.569348,-0.562901,-0.573378,-0.608677,-0.573539,-0.564674,-0.541947,-0.596266,-0.594493,-0.578697,-0.568865,-0.557743,-0.527279,-0.550651,-0.561450,-0.546944,-0.557098,-0.601585,-0.557098,-0.600779,-0.566608,-0.578697,-0.596105,-0.581598,-0.542431,-0.546299,-0.534210,-0.576924,-0.539529,-0.526957,-0.537918,-0.578213,-0.584822,-0.589819,-0.564352,-0.585467,-0.553230,-0.559839,-0.559355,-0.549362,-0.546299,-0.607549,-0.536145,-0.574667,-0.538724,-0.577569,-0.539046,-0.566125,-0.582082,-0.541786,-0.589819,-0.585950,-0.589335,-0.572733,-0.539046,-0.583855,-0.535983,-0.541464,-0.561612,-0.557260,-0.542914,-0.524539,-0.563868,-0.530987,-0.516964,-0.552585,-0.579664,-0.577085,-0.550651,-0.542270,-0.549684,-0.573056,-0.568381,-0.545654,-0.535661,-0.528085,-0.503102,-0.527602,-0.505197,-0.512128,-0.532599,-0.510839,-0.545816,-0.529214,-0.534533,-0.524217,-0.570799,-0.576440,-0.550651,-0.568865,-0.542592,-0.517125,-0.523895,-0.497299,-0.516641,-0.501007,-0.492625,-0.509549,-0.518092,-0.540013,-0.520671,-0.531470,-0.521799,-0.535339,-0.519704,-0.557904,-0.521960,-0.510033,-0.555325,-0.521155,-0.527441,-0.524378,-0.555164,-0.508905,-0.563062,-0.512773,-0.520187,-0.528730,-0.564352,-0.550006,-0.567737,-0.539046,-0.569348,-0.566286,-0.530987,-0.504553,-0.526796,-0.514868,-0.552908,-0.508260,-0.552585,-0.516319,-0.569026,-0.573539,-0.516641,-0.553069,-0.525506,-0.565158,-0.565158,-0.568542,-0.552908,-0.570154,-0.523733,-0.513095,-0.556131,-0.557098,-0.508099,-0.561934,-0.509066,-0.532276,-0.566447,-0.565480,-0.531470,-0.536950,-0.521799,-0.529214,-0.579181,-0.515030,-0.510355,-0.533243,-0.527763,-0.554036,-0.549684,-0.533566,-0.531309,-0.561289,-0.524862,-0.552908,-0.569026,-0.524862,-0.567898,-0.566931,-0.520671,-0.530503,-0.557260,-0.535177,-0.569348,-0.538240,-0.518737,-0.513901,-0.509227,-0.563707,-0.532921,-0.524378,-0.533727,-0.537112,-0.557260,-0.528085,-0.529214,-0.565641,-0.573862,-0.522928,-0.545654,-0.533243,-0.551941,-0.545654,-0.507937,-0.516319,-0.541786,-0.524378,-0.557743,-0.564835,-0.565480,-0.527441,-0.525990,-0.530181,-0.513740,-0.557421,-0.531954,-0.544365,-0.554036,-0.540819,-0.551296,-0.496816,-0.525668,-0.520187,-0.517447,-0.524862,-0.515997,-0.518092,-0.523572,-0.524701,-0.565480,-0.569993,-0.516319,-0.519381,-0.525668,-0.492464,-0.483760,-0.504553,-0.500362,-0.559516,-0.547911,-0.526312,-0.524701,-0.569671,-0.545977,-0.522605,-0.528569,-0.552585,-0.560322,-0.516158,-0.505036,-0.516964,-0.556937,-0.494076,-0.540980,-0.542431,-0.514062,-0.513901,-0.558549,-0.517770,-0.560483,-0.556937,-0.565480,-0.530503,-0.558549,-0.504069,-0.522605,-0.539207,-0.551457,-0.502135,-0.489240,-0.498750,-0.511806,-0.500362,-0.549684,-0.519865,-0.506809,-0.519381,-0.513579,-0.563868,-0.520187,-0.560806,-0.505681,-0.513579,-0.497299,-0.499234,-0.485855,-0.516803,-0.488434,-0.484888,-0.549362,-0.495204,-0.540174,-0.500362,-0.529375,-0.544204,-0.507937,-0.528085,-0.526635,-0.518576,-0.510839,-0.485855,-0.474089,-0.496171,-0.529214,-0.472961,-0.521638,-0.484727,-0.518576,-0.485694,-0.481181,-0.483921,-0.484405,-0.482148,-0.513257,-0.474089,-0.472961,-0.469092,-0.458293,-0.458454,-0.452168,-0.471349,-0.490530,-0.506809,-0.480697,-0.504391,-0.504553,-0.511967,-0.465707,-0.489401,-0.503424,-0.465224,-0.487467,-0.456036,-0.441530,-0.448622,-0.451684,-0.414935,-0.444270,-0.436533,-0.477151,-0.459421,-0.488273,-0.488757,-0.478280,-0.445076,-0.428474,-0.488918,-0.448622,-0.441530,-0.467158,-0.433632,-0.479247,-0.456520,-0.443303,-0.469576,-0.472316,-0.486339,-0.478280,-0.510678,-0.490207,-0.501007,-0.530181,-0.502135,-0.509872,-0.532599,-0.541302,-0.527924,-0.490368,-0.505197,-0.551135,-0.498105,-0.505520,-0.548233,-0.546138,-0.506970,-0.528085,-0.551779,-0.548233,-0.524378,-0.507615,-0.519704,-0.521799,-0.506164,-0.515835,-0.519381,-0.506487,-0.525506,-0.531309,-0.533566,-0.514385,-0.516480,-0.559033,-0.559839,-0.522766,-0.510678,-0.520832,-0.544848,-0.556454,-0.556293,-0.506648,-0.502296,-0.503747,-0.529214,-0.508260,-0.560161,-0.554036,-0.540980,-0.516964,-0.527118,-0.557904,-0.559194,-0.548395,-0.529214,-0.555487,-0.555325,-0.517125,-0.555970,-0.528891,-0.527279,-0.490207,-0.445559,-0.511000,-0.452652,-0.478441,-0.457165,-0.396721,-0.382859,-0.376895,-0.385922,-0.325961,-0.317096,-0.296948,-0.320965,-0.330797,-0.245208,-0.240534,-0.247626,-0.250205,-0.229574,-0.255524,-0.274866,-0.252623,-0.286633,-0.269869,-0.271320,-0.284859,-0.318063,-0.357553,-0.390435,-0.479247,-0.522928,-0.562256,-0.668315,-0.700391,-0.740042,-0.858351,-0.912831,-0.922663,-0.988104,-1.010992,-1.036943,-1.046614,-1.072242,-1.114472,-1.092551,-1.114956,-1.036781,-1.063377,-1.001482,-0.982624,-0.996808,-1.000676,-0.972952,-0.931851,-0.915571,-0.894134,-0.876081,-0.852387,-0.830627,-0.822246,-0.801936,-0.785173,-0.769861,-0.742943,-0.766476,-0.695878,-0.673312,-0.676535,-0.669766,-0.682177,-0.640269,-0.623506,-0.605615,-0.598361,-0.571444,-0.616414,-0.576924,-0.570638,-0.519704,-0.510194,-0.485372,-0.461839,-0.465224,-0.509549,-0.487306,-0.458938,-0.493109,-0.449267,-0.459582,-0.437017,-0.482470,-0.467642,-0.444592,-0.434760,-0.438467,-0.420576,-0.448783,-0.406231,-0.441852,-0.435566,-0.450556,-0.404941,-0.415579,-0.420415,-0.449105,-0.412839,-0.411389,-0.410260,-0.448138,-0.429280,-0.422671,-0.404619,-0.446688,-0.420576,-0.425250,-0.420898,-0.423800,-0.447171,-0.389951,-0.442013,-0.435727,-0.396398,-0.399139,-0.402201,-0.405747,-0.387050,-0.410905,-0.390918,-0.385277,-0.395593,-0.408971,-0.422349,-0.388339,-0.379474,-0.414773,-0.426379,-0.427346,-0.391724,-0.436211,-0.391402,-0.393658,-0.388017,-0.386244,-0.393981,-0.386566,-0.419125,-0.423800,-0.365774,-0.368997,-0.368997,-0.379152,-0.376089,-0.398010,-0.386244,-0.389629,-0.433471,-0.425089,-0.389306,-0.384793,-0.385277,-0.416869,-0.381086,-0.393175,-0.378829,-0.421060,-0.372382,-0.378185,-0.384954,-0.364001,-0.421543,-0.410260,-0.370770,-0.379797,-0.379474,-0.385438,-0.418964,-0.378346,-0.380119,-0.371254,-0.410744,-0.358198,-0.363195,-0.417836,-0.394787,-0.404458,-0.374800,-0.415257,-0.409777,-0.359971,-0.411711,-0.375928,-0.373672,-0.372221,-0.385599,-0.377862,-0.351267,-0.366741,-0.338856,-0.344820,-0.354168,-0.334988,-0.400750,-0.389790,-0.390273,-0.395593,-0.366418,-0.355780,-0.401718,-0.342241,-0.378346,-0.383020,-0.396882,-0.379958,-0.340951,-0.330313,-0.373833,-0.384310,-0.327412,-0.335310,-0.377379,-0.337566,-0.332892,-0.334665,-0.371415,-0.373994,-0.316290,-0.333053,-0.329346,-0.323221,-0.331280,-0.324188,-0.353201,-0.354813,-0.316129,-0.316451,-0.325800,-0.318708,-0.315646,-0.328540,-0.359487,-0.337566,-0.309843,-0.310004,-0.353524,-0.337244,-0.326767,-0.301623,-0.314356,-0.301461,-0.303879,-0.296142,-0.306942,-0.352718,-0.330313,-0.360132,-0.350784,-0.321287,-0.318224,-0.321771,-0.363517,-0.369158,-0.323866,-0.322093,-0.344014,-0.321932,-0.329668,-0.336438,-0.319353,-0.336438,-0.329830,-0.336116,-0.345787,-0.379474,-0.349333,-0.391079,-0.353846,-0.367063,-0.387050,-0.373027,-0.370287,-0.365612,-0.365451,-0.375445,-0.391885,-0.423961,-0.447655,-0.401073,-0.418158,-0.453296,-0.412839,-0.436533,-0.422510,-0.426701,-0.479730,-0.416385,-0.469737,-0.486500,-0.446365,-0.482632,-0.480375,-0.431859,-0.507937,-0.515030,-0.508099,-0.521155,-0.521316,-0.521960,-0.503263,-0.499072,-0.509066,-0.509549,-0.536145,-0.505197,-0.496493,-0.487306,-0.488918,-0.550973,-0.491336,-0.504391,-0.530503,-0.562740,-0.532276,-0.557904,-0.572894,-0.568059,-0.544526,-0.582888,-0.572411,-0.536950,-0.559677,-0.532921,-0.525023,-0.520671,-0.533566,-0.575957,-0.571766,-0.552102,-0.564996,-0.599973,-0.561128,-0.608838,-0.600940,-0.573539,-0.592720
 16:26:51.,-0.562417,-0.551296,-0.565319,-0.549845,-0.549362,-0.525345,-0.578052,-0.533888,-0.551296,-0.561450,-0.596911,-0.554358,-0.593365,-0.547589,-0.569187,-0.605776,-0.599006,-0.580470,-0.605454,-0.588852,-0.571444,-0.569671,-0.515030,-0.548072,-0.546783,-0.536145,-0.556615,-0.564674,-0.593365,-0.546944,-0.584338,-0.548072,-0.570799,-0.596750,-0.584177,-0.549523,-0.569510,-0.554036,-0.529697,-0.505197,-0.531793,-0.545493,-0.547589,-0.584500,-0.548556,-0.561773,-0.550973,-0.559516,-0.575796,-0.540980,-0.567092,-0.526635,-0.575312,-0.526635,-0.508905,-0.534694,-0.510516,-0.517931,-0.536306,-0.537434,-0.577246,-0.539691,-0.583694,-0.554197,-0.544687,-0.541786,-0.546138,-0.582888,-0.529375,-0.525184,-0.527118,-0.504875,-0.496816,-0.530664,-0.524701,-0.529697,-0.541625,-0.533082,-0.573700,-0.540497,-0.567898,-0.537756,-0.572894,-0.564674,-0.578858,-0.574023,-0.560000,-0.515352,-0.560806,-0.531793,-0.531954,-0.514224,-0.520026,-0.563546,-0.561128,-0.529536,-0.546622,-0.531470,-0.543398,-0.537918,-0.582888,-0.563868,-0.535016,-0.510678,-0.516964,-0.517125,-0.505520,-0.525345,-0.533404,-0.569348,-0.572572,-0.536628,-0.574345,-0.520187,-0.581921,-0.582888,-0.565480,-0.537273,-0.521638,-0.528085,-0.510678,-0.538885,-0.518898,-0.538885,-0.527118,-0.523895,-0.543398,-0.534694,-0.581437,-0.573217,-0.533243,-0.568704,-0.572089,-0.565802,-0.540980,-0.560644,-0.518898,-0.551457,-0.562095,-0.512128,-0.511000,-0.532760,-0.515997,-0.536145,-0.562095,-0.534372,-0.541947,-0.548878,-0.537595,-0.532276,-0.574506,-0.551457,-0.518253,-0.514385,-0.552908,-0.541947,-0.556776,-0.506487,-0.530342,-0.554197,-0.546783,-0.534210,-0.535661,-0.555487,-0.547427,-0.524217,-0.521316,-0.532115,-0.513579,-0.523089,-0.527602,-0.499556,-0.562417,-0.511806,-0.555003,-0.555970,-0.520993,-0.520510,-0.567092,-0.540980,-0.526151,-0.527602,-0.530342,-0.528247,-0.563223,-0.532437,-0.518576,-0.515352,-0.497461,-0.557098,-0.517770,-0.549039,-0.546783,-0.531148,-0.524701,-0.554036,-0.560483,-0.514707,-0.511645,-0.515352,-0.512773,-0.560967,-0.515352,-0.512934,-0.506970,-0.515674,-0.517770,-0.496977,-0.549039,-0.496010,-0.508743,-0.514546,-0.553069,-0.514707,-0.541786,-0.547750,-0.518414,-0.561612,-0.501490,-0.499234,-0.537434,-0.511645,-0.536467,-0.520349,-0.493914,-0.514546,-0.505842,-0.544204,-0.549523,-0.513095,-0.512773,-0.507615,-0.551135,-0.526957,-0.557904,-0.508421,-0.503585,-0.512773,-0.484405,-0.537434,-0.502135,-0.491174,-0.542270,-0.530503,-0.551296,-0.558388,-0.562740,-0.560483,-0.517770,-0.517286,-0.512773,-0.522928,-0.505842,-0.495365,-0.556615,-0.533082,-0.499556,-0.513095,-0.508260,-0.510355,-0.547105,-0.551618,-0.505359,-0.549362,-0.505359,-0.532760,-0.518092,-0.500684,-0.508905,-0.513740,-0.504875,-0.536789,-0.520993,-0.476829,-0.515997,-0.503908,-0.497783,-0.529214,-0.501651,-0.528891,-0.501812,-0.541141,-0.537434,-0.537756,-0.523572,-0.493109,-0.499878,-0.489240,-0.535177,-0.488918,-0.501974,-0.476990,-0.534533,-0.532115,-0.528730,-0.535661,-0.508743,-0.535177,-0.509227,-0.493914,-0.525506,-0.526151,-0.480214,-0.486984,-0.465707,-0.489563,-0.505197,-0.501007,-0.468931,-0.477796,-0.478441,-0.465385,-0.484405,-0.493431,-0.468125,-0.472477,-0.507937,-0.507776,-0.470865,-0.460227,-0.435244,-0.465869,-0.496655,-0.471671,-0.463773,-0.489563,-0.496332,-0.463451,-0.472477,-0.469092,-0.467319,-0.476668,-0.461194,-0.468770,-0.459099,-0.491336,-0.470865,-0.433471,-0.493270,-0.433954,-0.482793,-0.454263,-0.444109,-0.442980,-0.451684,-0.496977,-0.467642,-0.450234,-0.492464,-0.485855,-0.484405,-0.437339,-0.478924,-0.475378,-0.430408,-0.426379,-0.427346,-0.422027,-0.440563,-0.428474,-0.439434,-0.478280,-0.438306,-0.482470,-0.440724,-0.445882,-0.447977,-0.482632,-0.435082,-0.463773,-0.473283,-0.432020,-0.452974,-0.512289,-0.518414,-0.522122,-0.490207,-0.495526,-0.495204,-0.506326,-0.546460,-0.554358,-0.538079,-0.509227,-0.542914,-0.539207,-0.524217,-0.539852,-0.504553,-0.490046,-0.495849,-0.543398,-0.503424,-0.516803,-0.512128,-0.488434,-0.517608,-0.503908,-0.527924,-0.501329,-0.497299,-0.549200,-0.538401,-0.543881,-0.492947,-0.530987,-0.530020,-0.516319,-0.508905,-0.503585,-0.560161,-0.530987,-0.519704,-0.529858,-0.535339,-0.524862,-0.548395,-0.532115,-0.515513,-0.504391,-0.507937,-0.554681,-0.505197,-0.512289,-0.515030,-0.556293,-0.504553,-0.525345,-0.547105,-0.521316,-0.555164,-0.544526,-0.545493,-0.495204,-0.486178,-0.500039,-0.432342,-0.415740,-0.430731,-0.378991,-0.418803,-0.364162,-0.338695,-0.333537,-0.328540,-0.293886,-0.283731,-0.308070,-0.247304,-0.244725,-0.280024,-0.233120,-0.257942,-0.225705,-0.210393,-0.211037,-0.270998,-0.218291,-0.251656,-0.305975,-0.300172,-0.333376,-0.419287,-0.441046,-0.480214,-0.533888,-0.612546,-0.708772,-0.757127,-0.822407,-0.859801,-0.854321,-0.914443,-1.008091,-0.980850,-1.056929,-1.039683,-1.076433,-1.065472,-1.105285,-1.068535,-1.042906,-1.069824,-1.050160,-0.991005,-0.955061,-0.963926,-0.961186,-0.865604,-0.874469,-0.880111,-0.816927,-0.868667,-0.808384,-0.833367,-0.823857,-0.766154,-0.789042,-0.741493,-0.755193,-0.713930,-0.723601,-0.654615,-0.662351,-0.623345,-0.638819,-0.599973,-0.609967,-0.552585,-0.575635,-0.539529,-0.527763,-0.557098,-0.509710,-0.530503,-0.526635,-0.486661,-0.471671,-0.468447,-0.452813,-0.445882,-0.445398,-0.412678,-0.426540,-0.478763,-0.448300,-0.475540,-0.430569,-0.421865,-0.463773,-0.463451,-0.406875,-0.453619,-0.413000,-0.434277,-0.447171,-0.388339,-0.419770,-0.421060,-0.380280,-0.392852,-0.432504,-0.389951,-0.397204,-0.402685,-0.396721,-0.393981,-0.401718,-0.418481,-0.430731,-0.402040,-0.383343,-0.402685,-0.421382,-0.380925,-0.384310,-0.354491,-0.409293,-0.424283,-0.387372,-0.419770,-0.428474,-0.415579,-0.432020,-0.430086,-0.387050,-0.423961,-0.405747,-0.391724,-0.414935,-0.407842,-0.421704,-0.402523,-0.424283,-0.370770,-0.423316,-0.386566,-0.407037,-0.426379,-0.396237,-0.382375,-0.385277,-0.401879,-0.384793,-0.377056,-0.403813,-0.373994,-0.370609,-0.385438,-0.358037,-0.420415,-0.405747,-0.376895,-0.379152,-0.376412,-0.413645,-0.388500,-0.415740,-0.403813,-0.399139,-0.409293,-0.404941,-0.398494,-0.397849,-0.395109,-0.358520,-0.370931,-0.354813,-0.340307,-0.362550,-0.368997,-0.365935,-0.398333,-0.368030,-0.364162,-0.366902,-0.396882,-0.356747,-0.400106,-0.353040,-0.387856,-0.396076,-0.392047,-0.392369,-0.406714,-0.391885,-0.398333,-0.352557,-0.350461,-0.356909,-0.386727,-0.392691,-0.368514,-0.398333,-0.390435,-0.350139,-0.354168,-0.345626,-0.347076,-0.332570,-0.336761,-0.360777,-0.371415,-0.342080,-0.339178,-0.350461,-0.380602,-0.384954,-0.371576,-0.371415,-0.346915,-0.344336,-0.337244,-0.376895,-0.319675,-0.326122,-0.367385,-0.351912,-0.336761,-0.310165,-0.325800,-0.369803,-0.359971,-0.322738,-0.322254,-0.338372,-0.315484,-0.322738,-0.304846,-0.316935,-0.350300,-0.352234,-0.352879,-0.295175,-0.345948,-0.313711,-0.309682,-0.352557,-0.351428,-0.359326,-0.306619,-0.360616,-0.344820,-0.316774,-0.320159,-0.347882,-0.312583,-0.303718,-0.339984,-0.316935,-0.290662,-0.312099,-0.324511,-0.363839,-0.323866,-0.362066,-0.318547,-0.368675,-0.375928,-0.359971,-0.333698,-0.370770,-0.321771,-0.334020,-0.325478,-0.324511,-0.379474,-0.349333,-0.339823,-0.385760,-0.351751,-0.398816,-0.400589,-0.368836,-0.375445,-0.416708,-0.412678,-0.380280,-0.392691,-0.400750,-0.434599,-0.372382,-0.421221,-0.402362,-0.408165,-0.421543,-0.459421,-0.466997,-0.442980,-0.457003,-0.471994,-0.444592,-0.445559,-0.458454,-0.461194,-0.456681,-0.497783,-0.510516,-0.452813,-0.467642,-0.528247,-0.502135,-0.479086,-0.493109,-0.496816,-0.496010,-0.503102,-0.543881,-0.516641,-0.512773,-0.545010,-0.520026,-0.498589,-0.554036,-0.525506,-0.536789,-0.524862,-0.570154,-0.532276,-0.531954,-0.552263,-0.570477,-0.535339,-0.570477,-0.545171,-0.548717,-0.543881,-0.541302,-0.550329,-0.572089,-0.533243,-0.535339,-0.573700,-0.570154,-0.575151,-0.546783,-0.587079,-0.597394,-0.541464,-0.593042,-0.555648,-0.552746,-0.540174,-0.550812,-0.551296,-0.563546,-0.543398,-0.593042,-0.559677,-0.535339,-0.544365,-0.543075,-0.544204,-0.586273,-0.547911,-0.593848,-0.561612,-0.554197,-0.573378,-0.557260,-0.547427,-0.542753,-0.552908,-0.531793,-0.532276,-0.561773,-0.541141,-0.570315,-0.542270,-0.564674,-0.547105,-0.552102,-0.539046,-0.571605,-0.553230,-0.531470,-0.555809,-0.549200,-0.579503,-0.536306,-0.525184,-0.567898,-0.522605,-0.517931,-0.530664,-0.528730,-0.539368,-0.536628,-0.582082,-0.579825,-0.566447,-0.528569,-0.540980,-0.546299,-0.540335,-0.569510,-0.540980,-0.537112,-0.523895,-0.555809,-0.556615,-0.517608,-0.586595,-0.536145,-0.535177,-0.557743,-0.530826,-0.578052,-0.537595,-0.541786,-0.581921,-0.527924,-0.523411,-0.572894,-0.576924,-0.507937,-0.529697,-0.555487,-0.552585,-0.532921,-0.560967,-0.521316,-0.530020,-0.550168,-0.526474,-0.561934,-0.569187,-0.539691,-0.531793,-0.524378,-0.561289,-0.529536,-0.502941,-0.525345,-0.496655,-0.551135,-0.526957,-0.562740,-0.547911,-0.532760,-0.527118,-0.520993,-0.526474,-0.562417,-0.512934,-0.528569,-0.562901,-0.512128,-0.536145,-0.529697,-0.502135,-0.530503,-0.511967,-0.531470,-0.561128,-0.568220,-0.568059,-0.549362,-0.568704,-0.527441,-0.540497,-0.522928,-0.525023,-0.511000,-0.543237,-0.560161,-0.493753,-0.492625,-0.515513,-0.500201,-0.515835,-0.561289,-0.558227,-0.517770,-0.570638,-0.526957,-0.568381,-0.514868,-0.510516,-0.511967,-0.529214,-0.500845,-0.511322,-0.524862,-0.511483,-0.499556,-0.530664,-0.565641,-0.539207,-0.536628,-0.569993,-0.576924,-0.584661,-0.566286,-0.537273,-0.514385,-0.531148,-0.519865,-0.492625,-0.545493,-0.544848,-0.510516,-0.560483,-0.528085,-0.535983,-0.568542,-0.529052,-0.518576,-0.575957,-0.526957,-0.522928,-0.523895,-0.511967,-0.553391,-0.547589,-0.500039,-0.511967,-0.513579,-0.546622,-0.546783,-0.549362,-0.512934,-0.567898,-0.566769,-0.531793,-0.523250,-0.520349,-0.523572,-0.550651,-0.554197,-0.492303,-0.520026,-0.517125,-0.494076,-0.535177,-0.510194,-0.519865,-0.565480,-0.561612,-0.567092,-0.571283,-0.514062,-0.538562,-0.525023,-0.550168,-0.533727,-0.552585,-0.555164,-0.504230,-0.557421,-0.531793,-0.515997,-0.526151,-0.521477,-0.565641,-0.525990,-0.540013,-0.523895,-0.525990,-0.554520
 16:26:52.,-0.530826,-0.525345,-0.510678,-0.514385,-0.509549,-0.507937,-0.516480,-0.539529,-0.546944,-0.515835,-0.558227,-0.521155,-0.563385,-0.517770,-0.524056,-0.542431,-0.524701,-0.563223,-0.520671,-0.543237,-0.519381,-0.497299,-0.515513,-0.526312,-0.542431,-0.510839,-0.554036,-0.509710,-0.551135,-0.533727,-0.528085,-0.513095,-0.561612,-0.542108,-0.512934,-0.521960,-0.542914,-0.512128,-0.542431,-0.541464,-0.500845,-0.496010,-0.499395,-0.510355,-0.511000,-0.511806,-0.564029,-0.517608,-0.538240,-0.523250,-0.519059,-0.540335,-0.557904,-0.487790,-0.556454,-0.494559,-0.484082,-0.551457,-0.518898,-0.541302,-0.500362,-0.496977,-0.500201,-0.506326,-0.499556,-0.524056,-0.507615,-0.490852,-0.496332,-0.532437,-0.464418,-0.525829,-0.477313,-0.502457,-0.467642,-0.522122,-0.476829,-0.528408,-0.494882,-0.493270,-0.513740,-0.482632,-0.483115,-0.485372,-0.484243,-0.464257,-0.473122,-0.466191,-0.492625,-0.456681,-0.450234,-0.501168,-0.466352,-0.503424,-0.494398,-0.506809,-0.463773,-0.520187,-0.506164,-0.480053,-0.517286,-0.498589,-0.500684,-0.503424,-0.442175,-0.444431,-0.442175,-0.458776,-0.494882,-0.455714,-0.476345,-0.472477,-0.490691,-0.453135,-0.482470,-0.449589,-0.492625,-0.457326,-0.485049,-0.491980,-0.439918,-0.461839,-0.443948,-0.466030,-0.423316,-0.437823,-0.453135,-0.484243,-0.456681,-0.464740,-0.467480,-0.476023,-0.526312,-0.481181,-0.533566,-0.478280,-0.491658,-0.532115,-0.477151,-0.532760,-0.519543,-0.505197,-0.550812,-0.533082,-0.518737,-0.529052,-0.520671,-0.555003,-0.550490,-0.510516,-0.512128,-0.518414,-0.508743,-0.553230,-0.500201,-0.486822,-0.537273,-0.529858,-0.505197,-0.508582,-0.539529,-0.511161,-0.542914,-0.550168,-0.524539,-0.530987,-0.512773,-0.525990,-0.519543,-0.497461,-0.560161,-0.506970,-0.502296,-0.535500,-0.508905,-0.520832,-0.567092,-0.522605,-0.518898,-0.567898,-0.536145,-0.528085,-0.580470,-0.527763,-0.558227,-0.535500,-0.498750,-0.547589,-0.537273,-0.529858,-0.506648,-0.493592,-0.551779,-0.549845,-0.511967,-0.496171,-0.501168,-0.512612,-0.465707,-0.483599,-0.456198,-0.437339,-0.377218,-0.393820,-0.344981,-0.337244,-0.310165,-0.344820,-0.278896,-0.283086,-0.265034,-0.251978,-0.243597,-0.292596,-0.283570,-0.296465,-0.231669,-0.234248,-0.246820,-0.247948,-0.250850,-0.263744,-0.286955,-0.307103,-0.364162,-0.411389,-0.504069,-0.577246,-0.615447,-0.703131,-0.737141,-0.777436,-0.844167,-0.876887,-0.946357,-0.956351,-0.975370,-0.991489,-1.037748,-1.049193,-1.018245,-1.047419,-1.055801,-1.029850,-1.051610,-0.979077,-0.975531,-0.994712,-0.973597,-0.903643,-0.888976,-0.913153,-0.886074,-0.836107,-0.821601,-0.773407,-0.746167,-0.799841,-0.744394,-0.717154,-0.725374,-0.707483,-0.727631,-0.671378,-0.667348,-0.644299,-0.625440,-0.630437,-0.628503,-0.610611,-0.582404,-0.547105,-0.523572,-0.505197,-0.505359,-0.484405,-0.519059,-0.524701,-0.475378,-0.465707,-0.464257,-0.494882,-0.474895,-0.451523,-0.434760,-0.477635,-0.431698,-0.409616,-0.422833,-0.435888,-0.430731,-0.448944,-0.458454,-0.443786,-0.451846,-0.452652,-0.452813,-0.455875,-0.442336,-0.457165,-0.412194,-0.438790,-0.412517,-0.413806,-0.390112,-0.407037,-0.408971,-0.395593,-0.398816,-0.401073,-0.398333,-0.402040,-0.407681,-0.441369,-0.406714,-0.432342,-0.391563,-0.442013,-0.433793,-0.427023,-0.384310,-0.381408,-0.397849,-0.382537,-0.425089,-0.392691,-0.393497,-0.432987,-0.439273,-0.437178,-0.402362,-0.399622,-0.431375,-0.405264,-0.403007,-0.423477,-0.441046,-0.427829,-0.388662,-0.425089,-0.412356,-0.419609,-0.391241,-0.386566,-0.430408,-0.434438,-0.417836,-0.394948,-0.381892,-0.386083,-0.393014,-0.433471,-0.404780,-0.429602,-0.410583,-0.416224,-0.424283,-0.408004,-0.369481,-0.378829,-0.423961,-0.379958,-0.402362,-0.409938,-0.412517,-0.369481,-0.380925,-0.385438,-0.365129,-0.369803,-0.397527,-0.364001,-0.379958,-0.364162,-0.371415,-0.372704,-0.419125,-0.394787,-0.415096,-0.399461,-0.373027,-0.414773,-0.376573,-0.419448,-0.377218,-0.390112,-0.418158,-0.365935,-0.384149,-0.402201,-0.397849,-0.388178,-0.361905,-0.371899,-0.395915,-0.405908,-0.359810,-0.353524,-0.372704,-0.376251,-0.359004,-0.363356,-0.360293,-0.356264,-0.392852,-0.327412,-0.341435,-0.365451,-0.340790,-0.347399,-0.351428,-0.376895,-0.388823,-0.390112,-0.352395,-0.344659,-0.380441,-0.378024,-0.345787,-0.324511,-0.349816,-0.327251,-0.315646,-0.322415,-0.360132,-0.310971,-0.321609,-0.360777,-0.331603,-0.373027,-0.331280,-0.337244,-0.350139,-0.335149,-0.324511,-0.325155,-0.362389,-0.313067,-0.301945,-0.313389,-0.343047,-0.366418,-0.358520,-0.354813,-0.364323,-0.321126,-0.367063,-0.343208,-0.313873,-0.333215,-0.315162,-0.316774,-0.358682,-0.314195,-0.313228,-0.310810,-0.292435,-0.314678,-0.313067,-0.317902,-0.356747,-0.341435,-0.364968,-0.368191,-0.334665,-0.374639,-0.388500,-0.374961,-0.375767,-0.342886,-0.372221,-0.384954,-0.332409,-0.384471,-0.369642,-0.364806,-0.396237,-0.404780,-0.385277,-0.410260,-0.387372,-0.391563,-0.452168,-0.400428,-0.396721,-0.425895,-0.404780,-0.429441,-0.437823,-0.410583,-0.435244,-0.422994,-0.430892,-0.467642,-0.476023,-0.475862,-0.480214,-0.469898,-0.499717,-0.447655,-0.499556,-0.458776,-0.461355,-0.460711,-0.480859,-0.506326,-0.491013,-0.507776,-0.481987,-0.533888,-0.513579,-0.542592,-0.508905,-0.510678,-0.555487,-0.510516,-0.506487,-0.563707,-0.544204,-0.512289,-0.504230,-0.551618,-0.516319,-0.515674,-0.520832,-0.560322,-0.555970,-0.543881,-0.569993,-0.534049,-0.538401,-0.545171,-0.572411,-0.538240,-0.537112,-0.549523,-0.527602,-0.562901,-0.548717,-0.566931,-0.565641,-0.572250,-0.528085,-0.585789,-0.534694,-0.541302,-0.579342,-0.577569,-0.584177,-0.530664,-0.536628,-0.540819,-0.537918,-0.537112,-0.571121,-0.558549,-0.557904,-0.542270,-0.515997,-0.534210,-0.541947,-0.519220,-0.572733,-0.558710,-0.571283,-0.533888,-0.532115,-0.544848,-0.530020,-0.515191,-0.522928,-0.553714,-0.529536,-0.568059,-0.554842,-0.541141,-0.527279,-0.574345,-0.573862,-0.538240,-0.539207,-0.530826,-0.531631,-0.531631,-0.528891,-0.570960,-0.516641,-0.572572,-0.522283,-0.513095,-0.515030,-0.515352,-0.513095,-0.563868,-0.523089,-0.516803,-0.575312,-0.570638,-0.525990,-0.553391,-0.567898,-0.519543,-0.530987,-0.555809,-0.509066,-0.502618,-0.503424,-0.550006,-0.510033,-0.543237,-0.578052,-0.522605,-0.510678,-0.526312,-0.546138,-0.525668,-0.544204,-0.513257,-0.522928,-0.508905,-0.548556,-0.509066,-0.485049,-0.497461,-0.488918,-0.505842,-0.496010,-0.561450,-0.515352,-0.551941,-0.522444,-0.519704,-0.521638,-0.513418,-0.532921,-0.523250,-0.502618,-0.502457,-0.539852,-0.489240,-0.490691,-0.492947,-0.494882,-0.496171,-0.527279,-0.550329,-0.509549,-0.556937,-0.517286,-0.562095,-0.521638,-0.508582,-0.508905,-0.542753,-0.529375,-0.493109,-0.482632,-0.485049,-0.513740,-0.508260,-0.521960,-0.547750,-0.503424,-0.553714,-0.516319,-0.552585,-0.509227,-0.520026,-0.513257,-0.533243,-0.493592,-0.538240,-0.560483,-0.545171,-0.544848,-0.514546,-0.504069,-0.511967,-0.524862,-0.556937,-0.521799,-0.524378,-0.540335,-0.533082,-0.519220,-0.551941,-0.513257,-0.552746,-0.513901,-0.553230,-0.539368,-0.520832,-0.509549,-0.515191,-0.518737,-0.521638,-0.511161,-0.560322,-0.562579,-0.529697,-0.545010,-0.561612,-0.505842,-0.530664,-0.502618,-0.547750,-0.506809,-0.530503,-0.514868,-0.559033,-0.535177,-0.519059,-0.523250,-0.561450,-0.558388,-0.562740,-0.533888,-0.532760,-0.526474,-0.561934,-0.518092,-0.506326,-0.502296,-0.512128,-0.506326,-0.500201,-0.502457,-0.497299,-0.527441,-0.546944,-0.514062,-0.551135,-0.510516,-0.557743,-0.512128,-0.552424,-0.512612,-0.508099,-0.539368,-0.498428,-0.547266,-0.480536,-0.500684,-0.519865,-0.550490,-0.511483,-0.511967,-0.525023,-0.552908,-0.501007,-0.552585,-0.553230,-0.510516,-0.506003,-0.541786,-0.495365,-0.503747,-0.542431,-0.541947,-0.504230,-0.522766,-0.553230,-0.515513,-0.519543,-0.559194,-0.544848,-0.518737,-0.551296,-0.518414,-0.501812,-0.509549,-0.514224,-0.529214,-0.519059,-0.530503,-0.491819,-0.506003,-0.557582,-0.516319,-0.549523,-0.521155,-0.515674,-0.547266,-0.555487,-0.554842,-0.555970,-0.525345,-0.517608,-0.492303,-0.498750,-0.547105,-0.504553,-0.514062,-0.552585,-0.547105,-0.512612,-0.553714,-0.549039,-0.508905,-0.558388,-0.532276,-0.518414,-0.509710,-0.552746,-0.514062,-0.523250,-0.499878,-0.498589,-0.476023,-0.507454,-0.547589,-0.549845,-0.560322,-0.556293,-0.508582,-0.554681,-0.523089,-0.503908,-0.519704,-0.496493,-0.532115,-0.547427,-0.518898,-0.503908,-0.518576,-0.512934,-0.533566,-0.529858,-0.483760,-0.551941,-0.498750,-0.494882,-0.537273,-0.503747,-0.527279,-0.525345,-0.471188,-0.522283,-0.472961,-0.450878,-0.475056,-0.478441,-0.475701,-0.476023,-0.513740,-0.472961,-0.518576,-0.511806,-0.472316,-0.513579,-0.515030,-0.492947,-0.474250,-0.498428,-0.506326,-0.481020,-0.455875,-0.493592,-0.428152,-0.504875,-0.461517,-0.488434,-0.520349,-0.471510,-0.501168,-0.497138,-0.469898,-0.454747,-0.469092,-0.486500,-0.469737,-0.467480,-0.456359,-0.427346,-0.473122,-0.418803,-0.452813,-0.436856,-0.482954,-0.451846,-0.478924,-0.482309,-0.457971,-0.457648,-0.486984,-0.481342,-0.470704,-0.461194,-0.433471,-0.465063,-0.443948,-0.424122,-0.446365,-0.486178,-0.482148,-0.454747,-0.452007,-0.460066,-0.512934,-0.495365,-0.528730,-0.486500,-0.510839,-0.495688,-0.490207,-0.509872,-0.498750,-0.491174,-0.525829,-0.525506,-0.509388,-0.526474,-0.527118,-0.535339,-0.524056,-0.536789,-0.522444,-0.553230,-0.529375,-0.504714,-0.503908,-0.494398,-0.498589,-0.543720,-0.486984,-0.536628,-0.520187,-0.541786,-0.549362,-0.515997,-0.504553,-0.520832,-0.514707,-0.547911,-0.512934,-0.540497,-0.520187,-0.497461,-0.491336,-0.527924,-0.512934,-0.542270,-0.552908,-0.510678,-0.550812,-0.520349,-0.522283,-0.506487,-0.552424,-0.544848,-0.499072,-0.545816,-0.498105,-0.533566,-0.517125,-0.528247,-0.528730,-0.486016,-0.536306,-0.475217,-0.474089,-0.500362,-0.459260,-0.468125,-0.418642,-0.442013,-0.375928,-0.362711,-0.377056,-0.326928,-0.324994,-0.288083,-0.289211,-0.293725,-0.279218,-0.277284,-0.262455,-0.299044,-0.259876,-0.297915,-0.249721,-0.293725,-0.272126,-0.256169,-0.320320,-0.296626,-0.338695,-0.336116,-0.351267,-0.408487,-0.444915,-0.543881,-0.602391,-0.656388,-0.694427,-0.737624,-0.828209,-0.847713,-0.842394,-0.886236
 16:26:53.,-0.964410,-0.999225,-0.968439,-0.982785,-1.013410,-0.974081,-0.982462,-0.958285,-0.969890,-0.953933,-0.956834,-0.963926,-0.932979,-0.927176,-0.914120,-0.852870,-0.815959,-0.832723,-0.797262,-0.771634,-0.804838,-0.742943,-0.725374,-0.717799,-0.681855,-0.729726,-0.671055,-0.664930,-0.699262,-0.644460,-0.630276,-0.650424,-0.644460,-0.626569,-0.582888,-0.566447,-0.551618,-0.535016,-0.557421,-0.547911,-0.492786,-0.468609,-0.487951,-0.506648,-0.476507,-0.473283,-0.502941,-0.472316,-0.457326,-0.432020,-0.443464,-0.436856,-0.432826,-0.419770,-0.461517,-0.432826,-0.420898,-0.407681,-0.442497,-0.439596,-0.409293,-0.450878,-0.407681,-0.453296,-0.446527,-0.429925,-0.409777,-0.407037,-0.442013,-0.398171,-0.409454,-0.394625,-0.434277,-0.387050,-0.427668,-0.414451,-0.444431,-0.404941,-0.428152,-0.398655,-0.426862,-0.409616,-0.395270,-0.427346,-0.416385,-0.438629,-0.399461,-0.393658,-0.395915,-0.420576,-0.376251,-0.365290,-0.392369,-0.371093,-0.391241,-0.397204,-0.421382,-0.441369,-0.434277,-0.391885,-0.429602,-0.381086,-0.403974,-0.433471,-0.388500,-0.391402,-0.384149,-0.413484,-0.401234,-0.415096,-0.420737,-0.389951,-0.420092,-0.392208,-0.385599,-0.384954,-0.393497,-0.410099,-0.422833,-0.388500,-0.414129,-0.383020,-0.389468,-0.358520,-0.380119,-0.386083,-0.434599,-0.400589,-0.395270,-0.429119,-0.396076,-0.402846,-0.396237,-0.409616,-0.396882,-0.392047,-0.397043,-0.421543,-0.393497,-0.384632,-0.357392,-0.410583,-0.380119,-0.393175,-0.383343,-0.391563,-0.386889,-0.382698,-0.390918,-0.378668,-0.411550,-0.401395,-0.366902,-0.408326,-0.362550,-0.395754,-0.351106,-0.343369,-0.370448,-0.352557,-0.402523,-0.356586,-0.367385,-0.358843,-0.364645,-0.357070,-0.410260,-0.370126,-0.351589,-0.390757,-0.343691,-0.378346,-0.374639,-0.341918,-0.340468,-0.339178,-0.376895,-0.349494,-0.384471,-0.380764,-0.348043,-0.382698,-0.393175,-0.387695,-0.373027,-0.386889,-0.339178,-0.364806,-0.340790,-0.363033,-0.319997,-0.363517,-0.371254,-0.366902,-0.359004,-0.363356,-0.356747,-0.340468,-0.333215,-0.375445,-0.365290,-0.372221,-0.376089,-0.360455,-0.329024,-0.362711,-0.317096,-0.373349,-0.315807,-0.308715,-0.359165,-0.324833,-0.319675,-0.335955,-0.331603,-0.337728,-0.346915,-0.328218,-0.373833,-0.311616,-0.330313,-0.371093,-0.350945,-0.333215,-0.323544,-0.387856,-0.342402,-0.354813,-0.385760,-0.349655,-0.363356,-0.350139,-0.359004,-0.370931,-0.403329,-0.413000,-0.365612,-0.363839,-0.379474,-0.374316,-0.372060,-0.401879,-0.378507,-0.422994,-0.425573,-0.411227,-0.403007,-0.422833,-0.403652,-0.415418,-0.422833,-0.453941,-0.413484,-0.451846,-0.427990,-0.417675,-0.417513,-0.446688,-0.469576,-0.460066,-0.496816,-0.453780,-0.492786,-0.474734,-0.519059,-0.515513,-0.492464,-0.511161,-0.487467,-0.528730,-0.474089,-0.491174,-0.471671,-0.489240,-0.489079,-0.482309,-0.504069,-0.512451,-0.539852,-0.558066,-0.520671,-0.538240,-0.526635,-0.553391,-0.527118,-0.572733,-0.527924,-0.543398,-0.562256,-0.542431,-0.566286,-0.530503,-0.515513,-0.577408,-0.537595,-0.576279,-0.555487,-0.540497,-0.560967,-0.554036,-0.580954,-0.576118,-0.577085,-0.544204,-0.547911,-0.558066,-0.581276,-0.556776,-0.575151,-0.609161,-0.604325,-0.551135,-0.597072,-0.559839,-0.597394,-0.566769,-0.597556,-0.570315,-0.571766,-0.602391,-0.567414,-0.564996,-0.556615,-0.540980,-0.564674,-0.574023,-0.546299,-0.553714,-0.591108,-0.602069,-0.597072,-0.599006,-0.560322,-0.557582,-0.557743,-0.597233,-0.549845,-0.542914,-0.550006,-0.548072,-0.537112,-0.569993,-0.518576,-0.580309,-0.538885,-0.537756,-0.540658,-0.532437,-0.580309,-0.579825,-0.544204,-0.550168,-0.576924,-0.540174,-0.543237,-0.558549,-0.532115,-0.533888,-0.512773,-0.524217,-0.544365,-0.577085,-0.593687,-0.581598,-0.534049,-0.547266,-0.564835,-0.537756,-0.576279,-0.521155,-0.558066,-0.558066,-0.511322,-0.566608,-0.496010,-0.554842,-0.571927,-0.566931,-0.577408,-0.555648,-0.579342,-0.540980,-0.579987,-0.537756,-0.545654,-0.577085,-0.531309,-0.532437,-0.504069,-0.520832,-0.530826,-0.492464,-0.529214,-0.512289,-0.573056,-0.547750,-0.568220,-0.572894,-0.531954,-0.532115,-0.576763,-0.531793,-0.571283,-0.574990,-0.541625,-0.563385,-0.530503,-0.532921,-0.515030,-0.525023,-0.508260,-0.573217,-0.515352,-0.519704,-0.534210,-0.552263,-0.525345,-0.534694,-0.519059,-0.526151,-0.519220,-0.517931,-0.555003,-0.520026,-0.532276,-0.509066,-0.553714,-0.555003,-0.531631,-0.517931,-0.521799,-0.516158,-0.513579,-0.521960,-0.522122,-0.544687,-0.550812,-0.548717,-0.554520,-0.507937,-0.538562,-0.545654,-0.502618,-0.518092,-0.562095,-0.518737,-0.546460,-0.564835,-0.565158,-0.564835,-0.522122,-0.513740,-0.559839,-0.522444,-0.519543,-0.502780,-0.539852,-0.536789,-0.499072,-0.510839,-0.549362,-0.558549,-0.521799,-0.526151,-0.529375,-0.534855,-0.567092,-0.522122,-0.524862,-0.555648,-0.533888,-0.509549,-0.552746,-0.495204,-0.555003,-0.531470,-0.513095,-0.555487,-0.517931,-0.557421,-0.562256,-0.569187,-0.522283,-0.518898,-0.511645,-0.523895,-0.515352,-0.546783,-0.521960,-0.538885,-0.568542,-0.525345,-0.510839,-0.555487,-0.518414,-0.550812,-0.569993,-0.571121,-0.517770,-0.533082,-0.517286,-0.515674,-0.560967,-0.517608,-0.551941,-0.552746,-0.510516,-0.557421,-0.562901,-0.515191,-0.523895,-0.504230,-0.557904,-0.551296,-0.555970,-0.520832,-0.515674,-0.561934,-0.521477,-0.560161,-0.522605,-0.514385,-0.548233,-0.551941,-0.499395,-0.539529,-0.541947,-0.492464,-0.544526,-0.508260,-0.501168,-0.512451,-0.508099,-0.505520,-0.511645,-0.545010,-0.535339,-0.502941,-0.481503,-0.535177,-0.493270,-0.488757,-0.509710,-0.484888,-0.498105,-0.502135,-0.492141,-0.493270,-0.516641,-0.488595,-0.486178,-0.495526,-0.482148,-0.525668,-0.468931,-0.483921,-0.514868,-0.490046,-0.476990,-0.507615,-0.478280,-0.519543,-0.466997,-0.506809,-0.475056,-0.479086,-0.473444,-0.490207,-0.506487,-0.477957,-0.517125,-0.462161,-0.477957,-0.449428,-0.452168,-0.456681,-0.435888,-0.449911,-0.498589,-0.493431,-0.478280,-0.472799,-0.451684,-0.494398,-0.493270,-0.454747,-0.461839,-0.476990,-0.474411,-0.487145,-0.436372,-0.475378,-0.480053,-0.479086,-0.452813,-0.443948,-0.454908,-0.450878,-0.449750,-0.488434,-0.464579,-0.457326,-0.466674,-0.507937,-0.521960,-0.474089,-0.447494,-0.490852,-0.479569,-0.504069,-0.485372,-0.495688,-0.505036,-0.552424,-0.547105,-0.555648,-0.530020,-0.533082,-0.517608,-0.509066,-0.506003,-0.521799,-0.492625,-0.503424,-0.497783,-0.479408,-0.550329,-0.515835,-0.540980,-0.555325,-0.523250,-0.551941,-0.522283,-0.537273,-0.558066,-0.559839,-0.508905,-0.509549,-0.509388,-0.519704,-0.552585,-0.538562,-0.528408,-0.555970,-0.562256,-0.523733,-0.524378,-0.559839,-0.519220,-0.563868,-0.518576,-0.559355,-0.555970,-0.501974,-0.551941,-0.506809,-0.530020,-0.507293,-0.488112,-0.501974,-0.521316,-0.513579,-0.528085,-0.569348,-0.525668,-0.567575,-0.560483,-0.511645,-0.526151,-0.509388,-0.527602,-0.545816,-0.490530,-0.535983,-0.505197,-0.500039,-0.467642,-0.461033,-0.470704,-0.432181,-0.400589,-0.391724,-0.382698,-0.401879,-0.345303,-0.341435,-0.364162,-0.317257,-0.307586,-0.342241,-0.302912,-0.323060,-0.284376,-0.341918,-0.351267,-0.295014,-0.298721,-0.305330,-0.304685,-0.355458,-0.351106,-0.367869,-0.415740,-0.446204,-0.446527,-0.489885,-0.561128,-0.627536,-0.613352,-0.661384,-0.760351,-0.741331,-0.791621,-0.858512,-0.888170,-0.869795,-0.896874,-0.898486,-0.914120,-0.952966,-0.962314,-0.908801,-0.925242,-0.900259,-0.917989,-0.896551,-0.875436,-0.899453,-0.874791,-0.875114,-0.812736,-0.805805,-0.798713,-0.776953,-0.799035,-0.780338,-0.728598,-0.720377,-0.677180,-0.691848,-0.688947,-0.644299,-0.643332,-0.621572,-0.676052,-0.636240,-0.648973,-0.607227,-0.638496,-0.581115,-0.573217,-0.561128,-0.552424,-0.549845,-0.521477,-0.528730,-0.508905,-0.503263,-0.493270,-0.517931,-0.508421,-0.509872,-0.468125,-0.461839,-0.478763,-0.488918,-0.482632,-0.431698,-0.474411,-0.430408,-0.427990,-0.451201,-0.436050,-0.390273,-0.405586,-0.436856,-0.430731,-0.417191,-0.451040,-0.446849,-0.449750,-0.448944,-0.415579,-0.399461,-0.402846,-0.403491,-0.402201,-0.432020,-0.447816,-0.436050,-0.391079,-0.413000,-0.414451,-0.398333,-0.408165,-0.440079,-0.417352,-0.449589,-0.399944,-0.408004,-0.402685,-0.447332,-0.405102,-0.400750,-0.395915,-0.423316,-0.396882,-0.390757,-0.365451,-0.414773,-0.431536,-0.394787,-0.386405,-0.387372,-0.420254,-0.405425,-0.437178,-0.433632,-0.401395,-0.396721,-0.445076,-0.396076,-0.374155,-0.428796,-0.406392,-0.396560,-0.423638,-0.365774,-0.382698,-0.388017,-0.426056,-0.397366,-0.411227,-0.424283,-0.409938,-0.431698,-0.390435,-0.391402,-0.368997,-0.379797,-0.419609,-0.362066,-0.368514,-0.367708,-0.393014,-0.415902,-0.418319,-0.388500,-0.381892,-0.376412,-0.437339,-0.418642,-0.387050,-0.388823,-0.371254,-0.374800,-0.383665,-0.399139,-0.360777,-0.401073,-0.394625,-0.375928,-0.367224,-0.376412,-0.372704,-0.402846,-0.407842,-0.383826,-0.401234,-0.358682,-0.385438,-0.396560,-0.353524,-0.394303,-0.351106,-0.322738,-0.381408,-0.388017,-0.352073,-0.363517,-0.351106,-0.359971,-0.360132,-0.373027,-0.393175,-0.349011,-0.343047,-0.345787,-0.353685,-0.318869,-0.364806,-0.335632,-0.338050,-0.385438,-0.366096,-0.331119,-0.333053,-0.366741,-0.372866,-0.373027,-0.338856,-0.341274,-0.334988,-0.328863,-0.362066,-0.322415,-0.354652,-0.348205,-0.352234,-0.366096,-0.339340,-0.323866,-0.359165,-0.322738,-0.361099,-0.330636,-0.330958,-0.311455,-0.312422,-0.328218,-0.342241,-0.306136,-0.347237,-0.298238,-0.336599,-0.330636,-0.336116,-0.324349,-0.316451,-0.317741,-0.320642,-0.327734,-0.326445,-0.323060,-0.323866,-0.315323,-0.326606,-0.316935,-0.354974,-0.327895,-0.307264,-0.322254,-0.368514,-0.360616,-0.350784,-0.334504,-0.345303,-0.351428,-0.355941,-0.360132,-0.379313,-0.397204,-0.385922,-0.375122,-0.356747,-0.386727,-0.402685,-0.371093,-0.424767,-0.389306,-0.382859,-0.387695,-0.379797,-0.405425,-0.423155,-0.450234,-0.413806,-0.444270,-0.464257,-0.432987,-0.463773,-0.429602,-0.421865,-0.446688,-0.476507,-0.482954,-0.442175,-0.502296,-0.496816,-0.509710,-0.468286,-0.477635,-0.493270,-0.478441,-0.545816,-0.535822,-0.487790,-0.500362,-0.539368,-0.493109,-0.501329,-0.509710,-0.490046,-0.501812,-0.546460,-0.520026,-0.562256,-0.564029,-0.542753,-0.531954
 16:26:54.,-0.523411,-0.577891,-0.573700,-0.547105,-0.579181,-0.531148,-0.563385,-0.537918,-0.531470,-0.535177,-0.574667,-0.535177,-0.550168,-0.579181,-0.583371,-0.579019,-0.574184,-0.552908,-0.585628,-0.545332,-0.547750,-0.567253,-0.541947,-0.582243,-0.533082,-0.528408,-0.562579,-0.529858,-0.586434,-0.576440,-0.547589,-0.546944,-0.550006,-0.577085,-0.600296,-0.592398,-0.547589,-0.544848,-0.589174,-0.539368,-0.534372,-0.557582,-0.559839,-0.523733,-0.540013,-0.551779,-0.556454,-0.572250,-0.599006,-0.558227,-0.562901,-0.545493,-0.553875,-0.590302,-0.584177,-0.544526,-0.528569,-0.550168,-0.565158,-0.579503,-0.553875,-0.555164,-0.545977,-0.554842,-0.550651,-0.548556,-0.552263,-0.549845,-0.550168,-0.584177,-0.527279,-0.579019,-0.511000,-0.524056,-0.532115,-0.508421,-0.555648,-0.581760,-0.536628,-0.558871,-0.592236,-0.548878,-0.542753,-0.534694,-0.565641,-0.550168,-0.532760,-0.522283,-0.529536,-0.541947,-0.509549,-0.492947,-0.541141,-0.523572,-0.515513,-0.534855,-0.521799,-0.526151,-0.572572,-0.551296,-0.549200,-0.548233,-0.565319,-0.531631,-0.505520,-0.559839,-0.514546,-0.550006,-0.564029,-0.553714,-0.511483,-0.543237,-0.569671,-0.556454,-0.527118,-0.520671,-0.571766,-0.560967,-0.556615,-0.512773,-0.552585,-0.535500,-0.557421,-0.519704,-0.506487,-0.521799,-0.490368,-0.518898,-0.536467,-0.555003,-0.551941,-0.510516,-0.523411,-0.529375,-0.549845,-0.554842,-0.549362,-0.527602,-0.553069,-0.516803,-0.498911,-0.523411,-0.507132,-0.547105,-0.542592,-0.514062,-0.548717,-0.562256,-0.524701,-0.533566,-0.533082,-0.524539,-0.564352,-0.557260,-0.518737,-0.554520,-0.525990,-0.553230,-0.515674,-0.528569,-0.518737,-0.556454,-0.571766,-0.563707,-0.517931,-0.529214,-0.514062,-0.518576,-0.526796,-0.547266,-0.516803,-0.500845,-0.499072,-0.555648,-0.485533,-0.560967,-0.496332,-0.510678,-0.524056,-0.519704,-0.520832,-0.525184,-0.547589,-0.562256,-0.519704,-0.557904,-0.558388,-0.562095,-0.508099,-0.525184,-0.542270,-0.482954,-0.523411,-0.496493,-0.550490,-0.501974,-0.499878,-0.554681,-0.516803,-0.518414,-0.522283,-0.553875,-0.508905,-0.549200,-0.494882,-0.496010,-0.489240,-0.483760,-0.536145,-0.463128,-0.519865,-0.487951,-0.481020,-0.490530,-0.523733,-0.486339,-0.492464,-0.480859,-0.489401,-0.490530,-0.522766,-0.487628,-0.524217,-0.471510,-0.479892,-0.466836,-0.473283,-0.477151,-0.520349,-0.480053,-0.502457,-0.482309,-0.487628,-0.498911,-0.501329,-0.523572,-0.497299,-0.467964,-0.477313,-0.492786,-0.524056,-0.443303,-0.482793,-0.501007,-0.493914,-0.516641,-0.516319,-0.477957,-0.529214,-0.490368,-0.483921,-0.540658,-0.528085,-0.522766,-0.478763,-0.475701,-0.471188,-0.497783,-0.488595,-0.472477,-0.478118,-0.488434,-0.486016,-0.482148,-0.500201,-0.499234,-0.542270,-0.507293,-0.502457,-0.526151,-0.543237,-0.535177,-0.525184,-0.509388,-0.548233,-0.554842,-0.543881,-0.517447,-0.530826,-0.563385,-0.532115,-0.562256,-0.550973,-0.527602,-0.535016,-0.577569,-0.575312,-0.517286,-0.553875,-0.569671,-0.512612,-0.573539,-0.503424,-0.530342,-0.575151,-0.531470,-0.579825,-0.584822,-0.528408,-0.531954,-0.531954,-0.552102,-0.576924,-0.562740,-0.532115,-0.579019,-0.564513,-0.544043,-0.530342,-0.524539,-0.569671,-0.530987,-0.536306,-0.558549,-0.538562,-0.544365,-0.538724,-0.544365,-0.540819,-0.532599,-0.529697,-0.529375,-0.558227,-0.523895,-0.509227,-0.505681,-0.574345,-0.565641,-0.528730,-0.533727,-0.534855,-0.582404,-0.567737,-0.560322,-0.560161,-0.540819,-0.501329,-0.520349,-0.490207,-0.452007,-0.401556,-0.411711,-0.377056,-0.372543,-0.376573,-0.373833,-0.367708,-0.357553,-0.397849,-0.351589,-0.388984,-0.358359,-0.372382,-0.367063,-0.320803,-0.340145,-0.317580,-0.310165,-0.367224,-0.361099,-0.396560,-0.367385,-0.394948,-0.479247,-0.475862,-0.558549,-0.555487,-0.613835,-0.651391,-0.663157,-0.723118,-0.752614,-0.784206,-0.786302,-0.804999,-0.836430,-0.876565,-0.895745,-0.893489,-0.929110,-0.953288,-0.930722,-0.936847,-0.915410,-0.948453,-0.938459,-0.883818,-0.901709,-0.890104,-0.878176,-0.856417,-0.787430,-0.799680,-0.756160,-0.753904,-0.745039,-0.737463,-0.758256,-0.718121,-0.699585,-0.728275,-0.684272,-0.673312,-0.670733,-0.650746,-0.638496,-0.681371,-0.601585,-0.610128,-0.656549,-0.632210,-0.643170,-0.626085,-0.617703,-0.586273,-0.601746,-0.591914,-0.557098,-0.530342,-0.530020,-0.510355,-0.496816,-0.498750,-0.514707,-0.513095,-0.472477,-0.440724,-0.467803,-0.450395,-0.446043,-0.498266,-0.483599,-0.455392,-0.480859,-0.484888,-0.499717,-0.449911,-0.482148,-0.431536,-0.434438,-0.428958,-0.425573,-0.467642,-0.424444,-0.438951,-0.439596,-0.439434,-0.470059,-0.425895,-0.445882,-0.423800,-0.470059,-0.466836,-0.463451,-0.428958,-0.406875,-0.414129,-0.420576,-0.405425,-0.423316,-0.400267,-0.432665,-0.461194,-0.425089,-0.435082,-0.455553,-0.457648,-0.410583,-0.466997,-0.446365,-0.453135,-0.431214,-0.410744,-0.417836,-0.389145,-0.390112,-0.439918,-0.397043,-0.408810,-0.445076,-0.408487,-0.415902,-0.410260,-0.434599,-0.424122,-0.402685,-0.451040,-0.446527,-0.428958,-0.392047,-0.389790,-0.391402,-0.420092,-0.398655,-0.406714,-0.412033,-0.407842,-0.415096,-0.394303,-0.412033,-0.407681,-0.402685,-0.437984,-0.402201,-0.423477,-0.403652,-0.401556,-0.431214,-0.366741,-0.391885,-0.392691,-0.395915,-0.436856,-0.412033,-0.440885,-0.395754,-0.405264,-0.402523,-0.422027,-0.406553,-0.396560,-0.391241,-0.381408,-0.386244,-0.423316,-0.367708,-0.422027,-0.385277,-0.422833,-0.396560,-0.395431,-0.393336,-0.392530,-0.419770,-0.419287,-0.411227,-0.389306,-0.422188,-0.424928,-0.380764,-0.389790,-0.367708,-0.384632,-0.379313,-0.368514,-0.374800,-0.417030,-0.416546,-0.380602,-0.369158,-0.377379,-0.367385,-0.404619,-0.408326,-0.405264,-0.397849,-0.357070,-0.369964,-0.365451,-0.367708,-0.381731,-0.374155,-0.357876,-0.348527,-0.366257,-0.353685,-0.392208,-0.390918,-0.352718,-0.364645,-0.393820,-0.348366,-0.384954,-0.377379,-0.335632,-0.376573,-0.359810,-0.342080,-0.346432,-0.386727,-0.347721,-0.357231,-0.338856,-0.348205,-0.333215,-0.389306,-0.375445,-0.325317,-0.373188,-0.339984,-0.336761,-0.391724,-0.366580,-0.372866,-0.350784,-0.334826,-0.388500,-0.387856,-0.393175,-0.393336,-0.375283,-0.352879,-0.367063,-0.397688,-0.408165,-0.373510,-0.353040,-0.410905,-0.400589,-0.358520,-0.390273,-0.395270,-0.413000,-0.394787,-0.380602,-0.406392,-0.394142,-0.405102,-0.422671,-0.406069,-0.452974,-0.420415,-0.408487,-0.463128,-0.439434,-0.463451,-0.413484,-0.471188,-0.434277,-0.488918,-0.442980,-0.468609,-0.466997,-0.453135,-0.476668,-0.473605,-0.503424,-0.523250,-0.515513,-0.472799,-0.523411,-0.464257,-0.508421,-0.488757,-0.489401,-0.538240,-0.500845,-0.544526,-0.559839,-0.524378,-0.525345,-0.531148,-0.528891,-0.524862,-0.523895,-0.543559,-0.534533,-0.515352,-0.548717,-0.556454,-0.548395,-0.578536,-0.536950,-0.568865,-0.581276,-0.582404,-0.540335,-0.588046,-0.562579,-0.549523,-0.561450,-0.546299,-0.546299,-0.555003,-0.561773,-0.541625,-0.562417,-0.532276,-0.547589,-0.541302,-0.586111,-0.554036,-0.546783,-0.561128,-0.558388,-0.548717,-0.554681,-0.579181,-0.543720,-0.557743,-0.569510,-0.535339,-0.526635,-0.528730,-0.538079,-0.588046,-0.543881,-0.578697,-0.551941,-0.587240,-0.555648,-0.547589,-0.587079,-0.549684,-0.586111,-0.538724,-0.557098,-0.560483,-0.555487,-0.535983,-0.524378,-0.545010,-0.530826,-0.569348,-0.547911,-0.530826,-0.580148,-0.571121,-0.543398,-0.529214,-0.555164,-0.524701,-0.521316,-0.506487,-0.558066,-0.543559,-0.537112,-0.521316,-0.524056,-0.533082,-0.565480,-0.526151,-0.535339,-0.541786,-0.573862,-0.547589,-0.560644,-0.556615,-0.530503,-0.539691,-0.557904,-0.508905,-0.488434,-0.539852,-0.554358,-0.512773,-0.525668,-0.512289,-0.550651,-0.540819,-0.514224,-0.545010,-0.550812,-0.553069,-0.515674,-0.554681,-0.503263,-0.519865,-0.492141,-0.537756,-0.514062,-0.538724,-0.528730,-0.517286,-0.526635,-0.526796,-0.563062,-0.564029,-0.529214,-0.556131,-0.518092,-0.513095,-0.545654,-0.552263,-0.509066,-0.533082,-0.526474,-0.550329,-0.510678,-0.531470,-0.556293,-0.537434,-0.522766,-0.520510,-0.524056,-0.549362,-0.566931,-0.521155,-0.512128,-0.549684,-0.548395,-0.523411,-0.504230,-0.493914,-0.498428,-0.511967,-0.548878,-0.507937,-0.556615,-0.534855,-0.509066,-0.501329,-0.492625,-0.499072,-0.493914,-0.493753,-0.546299,-0.479086,-0.505197,-0.493270,-0.475862,-0.500039,-0.549039,-0.547266,-0.512128,-0.555487,-0.554520,-0.504553,-0.529697,-0.512451,-0.518737,-0.529697,-0.513901,-0.542753,-0.476184,-0.542270,-0.518414,-0.503263,-0.550168,-0.537273,-0.554681,-0.507615,-0.512451,-0.499072,-0.551457,-0.548395,-0.501651,-0.503908,-0.538401,-0.506970,-0.498750,-0.533727,-0.490852,-0.471026,-0.494398,-0.511161,-0.533727,-0.496977,-0.531309,-0.496816,-0.499878,-0.529536,-0.529536,-0.518253,-0.491336,-0.496010,-0.478280,-0.511967,-0.496493,-0.470704,-0.492303,-0.485855,-0.467803,-0.491336,-0.478924,-0.477635,-0.481503,-0.482470,-0.488918,-0.479247,-0.490530,-0.481665,-0.471188,-0.501168,-0.504391,-0.443948,-0.458776,-0.436856,-0.495849,-0.506487,-0.513418,-0.506809,-0.478280,-0.513579,-0.468447,-0.476668,-0.500201,-0.463290,-0.465546,-0.480536,-0.462000,-0.487628,-0.488757,-0.522605,-0.496977,-0.466030,-0.462645,-0.462323,-0.500039,-0.474895,-0.507132,-0.483921,-0.488757,-0.486500,-0.485049,-0.475378,-0.521638,-0.485049,-0.479247,-0.549362,-0.496171,-0.555003,-0.538240,-0.521477,-0.569187,-0.528408,-0.571927,-0.535822,-0.531470,-0.532599,-0.572733,-0.524217,-0.537756,-0.561773,-0.546944,-0.558549,-0.538401,-0.511483,-0.579987,-0.523895,-0.538079,-0.579825,-0.528891,-0.576602,-0.545493,-0.521316,-0.557743,-0.523411,-0.519059,-0.544526,-0.545816,-0.524378,-0.570154,-0.516964,-0.553875,-0.581760,-0.532115,-0.544526,-0.531793,-0.536145,-0.546299,-0.591108,-0.559677,-0.541464,-0.537434,-0.587240,-0.519704,-0.569832,-0.543398,-0.559839,-0.561934,-0.574829,-0.560644,-0.545493,-0.549845,-0.535339,-0.579987,-0.543559,-0.535177,-0.542592,-0.576118,-0.525506,-0.567575,-0.506003,-0.530181,-0.540658,-0.524056,-0.516480,-0.486500,-0.498266,-0.491497,-0.496977,-0.493431,-0.498105,-0.480214,-0.415096,-0.446204,-0.435244,-0.433309,-0.402523,-0.366741,-0.400589,-0.384149,-0.389468,-0.374478,-0.373027,-0.361260,-0.348688,-0.371415,-0.368997
 16:26:55.,-0.337728,-0.383665,-0.349172,-0.408971,-0.380441,-0.423316,-0.419125,-0.503908,-0.512773,-0.585950,-0.615447,-0.617865,-0.683628,-0.705710,-0.764219,-0.770183,-0.776631,-0.854805,-0.871890,-0.849163,-0.881400,-0.909446,-0.939426,-0.896390,-0.907189,-0.931045,-0.889298,-0.909124,-0.917183,-0.852548,-0.878176,-0.884785,-0.835463,-0.814025,-0.810157,-0.824825,-0.783723,-0.804677,-0.768410,-0.735368,-0.743588,-0.693943,-0.703131,-0.696361,-0.712479,-0.683628,-0.655904,-0.691042,-0.690720,-0.688302,-0.636723,-0.632210,-0.622539,-0.650746,-0.591269,-0.584983,-0.613674,-0.542108,-0.551941,-0.577085,-0.523733,-0.536628,-0.548072,-0.523572,-0.510355,-0.497461,-0.496010,-0.519059,-0.477151,-0.515674,-0.471349,-0.449589,-0.500684,-0.451846,-0.443303,-0.454263,-0.418803,-0.439112,-0.492625,-0.479569,-0.441852,-0.480214,-0.489240,-0.444109,-0.443142,-0.470382,-0.483115,-0.485211,-0.428313,-0.431053,-0.405264,-0.421704,-0.433471,-0.438629,-0.429280,-0.424444,-0.433148,-0.460066,-0.415579,-0.425089,-0.426701,-0.470059,-0.473928,-0.470382,-0.428635,-0.427990,-0.457809,-0.412839,-0.401395,-0.397043,-0.400267,-0.457487,-0.417997,-0.443464,-0.421704,-0.467964,-0.458776,-0.426379,-0.465063,-0.421865,-0.430408,-0.422188,-0.416546,-0.404619,-0.454908,-0.436856,-0.410099,-0.413000,-0.405586,-0.419448,-0.415418,-0.416224,-0.440563,-0.461355,-0.459099,-0.465546,-0.413967,-0.458776,-0.440563,-0.395915,-0.450717,-0.390435,-0.383020,-0.417352,-0.374800,-0.392852,-0.413000,-0.400106,-0.398333,-0.449589,-0.408004,-0.450556,-0.407681,-0.414129,-0.445882,-0.447010,-0.391563,-0.403974,-0.417675,-0.373349,-0.409132,-0.380280,-0.391563,-0.392047,-0.403007,-0.439757,-0.440724,-0.434760,-0.398977,-0.431698,-0.407842,-0.396237,-0.380925,-0.368030,-0.410905,-0.349655,-0.408487,-0.375445,-0.377218,-0.386566,-0.421060,-0.422671,-0.378991,-0.422994,-0.380119,-0.375122,-0.379797,-0.419609,-0.385922,-0.362550,-0.411711,-0.345626,-0.360455,-0.399300,-0.369642,-0.377379,-0.407520,-0.358520,-0.370609,-0.392047,-0.389790,-0.357714,-0.388178,-0.366902,-0.346593,-0.380441,-0.345464,-0.341757,-0.375445,-0.371576,-0.333537,-0.339823,-0.392691,-0.376412,-0.342080,-0.372382,-0.340145,-0.343691,-0.359326,-0.353846,-0.364001,-0.342080,-0.380441,-0.351751,-0.324672,-0.373188,-0.354974,-0.347237,-0.379152,-0.386083,-0.347237,-0.346270,-0.388662,-0.370770,-0.345787,-0.382375,-0.392691,-0.388017,-0.344175,-0.361422,-0.357714,-0.334343,-0.345464,-0.365129,-0.379797,-0.359649,-0.387050,-0.392208,-0.421543,-0.413000,-0.424122,-0.407198,-0.414290,-0.427829,-0.427990,-0.386889,-0.386405,-0.380119,-0.438145,-0.398494,-0.423155,-0.409777,-0.416224,-0.455392,-0.425895,-0.436050,-0.470704,-0.440563,-0.481503,-0.442497,-0.446043,-0.487467,-0.474734,-0.487467,-0.452652,-0.482632,-0.453135,-0.457971,-0.471349,-0.516803,-0.519543,-0.492786,-0.494882,-0.490530,-0.499072,-0.528569,-0.499395,-0.534372,-0.539691,-0.493592,-0.547427,-0.486339,-0.508099,-0.541947,-0.551457,-0.523733,-0.515352,-0.547750,-0.542108,-0.566608,-0.534210,-0.539368,-0.580309,-0.555970,-0.584661,-0.530020,-0.579019,-0.567737,-0.571766,-0.551941,-0.533404,-0.559355,-0.590463,-0.553391,-0.560000,-0.555164,-0.587240,-0.576924,-0.552102,-0.570799,-0.607065,-0.568220,-0.595460,-0.597556,-0.538240,-0.560644,-0.600940,-0.567898,-0.608032,-0.576279,-0.575635,-0.568704,-0.558388,-0.567092,-0.603358,-0.568059,-0.608194,-0.556293,-0.557582,-0.566769,-0.555164,-0.526151,-0.587401,-0.575796,-0.537595,-0.561773,-0.548878,-0.553875,-0.598845,-0.553230,-0.577730,-0.595944,-0.556454,-0.571605,-0.551618,-0.557582,-0.563062,-0.594171,-0.550490,-0.575151,-0.524378,-0.540335,-0.552746,-0.582404,-0.549523,-0.549200,-0.545654,-0.556293,-0.583855,-0.547911,-0.596105,-0.543237,-0.546944,-0.553714,-0.529536,-0.534533,-0.530826,-0.548395,-0.576279,-0.579664,-0.574829,-0.543559,-0.542431,-0.566608,-0.565158,-0.539368,-0.579503,-0.581437,-0.536789,-0.544848,-0.576118,-0.541464,-0.515997,-0.534855,-0.518092,-0.570477,-0.526312,-0.534049,-0.575312,-0.525023,-0.538079,-0.571444,-0.535661,-0.568704,-0.579664,-0.551618,-0.567253,-0.522122,-0.516964,-0.525829,-0.501168,-0.527924,-0.519704,-0.553552,-0.557260,-0.566125,-0.513901,-0.515191,-0.525668,-0.559194,-0.561612,-0.550168,-0.518414,-0.543881,-0.529858,-0.503908,-0.480053,-0.551296,-0.503908,-0.539046,-0.514224,-0.512773,-0.522605,-0.518576,-0.527602,-0.511806,-0.554842,-0.514546,-0.553069,-0.518576,-0.528569,-0.529052,-0.557421,-0.502135,-0.506970,-0.505036,-0.503102,-0.517447,-0.519381,-0.554197,-0.515352,-0.564191,-0.511806,-0.528730,-0.548556,-0.502618,-0.504714,-0.497783,-0.494720,-0.536950,-0.519220,-0.505359,-0.504875,-0.501651,-0.531470,-0.506809,-0.536950,-0.510516,-0.496977,-0.508743,-0.522928,-0.485855,-0.495526,-0.501651,-0.468609,-0.484888,-0.482309,-0.468770,-0.486661,-0.486984,-0.532760,-0.496332,-0.492625,-0.484888,-0.517447,-0.489079,-0.527763,-0.531148,-0.511806,-0.470059,-0.479408,-0.453619,-0.474250,-0.501329,-0.482309,-0.474411,-0.461355,-0.515513,-0.494559,-0.475540,-0.520993,-0.522444,-0.507937,-0.474411,-0.519381,-0.462484,-0.467480,-0.456842,-0.451040,-0.478280,-0.472477,-0.494237,-0.486339,-0.451523,-0.472961,-0.455230,-0.452168,-0.488434,-0.485855,-0.504230,-0.459905,-0.507615,-0.470382,-0.457003,-0.486822,-0.440885,-0.501168,-0.441046,-0.466513,-0.467642,-0.495526,-0.512934,-0.475862,-0.475056,-0.473283,-0.472155,-0.515674,-0.490530,-0.490207,-0.520349,-0.536145,-0.493592,-0.531954,-0.530020,-0.480053,-0.505197,-0.494398,-0.502135,-0.509388,-0.514546,-0.514224,-0.518253,-0.554842,-0.514224,-0.510194,-0.553230,-0.556293,-0.503263,-0.487467,-0.537434,-0.539046,-0.487306,-0.517931,-0.530020,-0.554036,-0.521155,-0.525829,-0.524217,-0.520187,-0.551941,-0.526635,-0.547266,-0.558549,-0.515352,-0.535661,-0.497138,-0.496171,-0.492464,-0.505197,-0.525023,-0.511483,-0.563546,-0.520671,-0.553391,-0.524862,-0.567898,-0.522766,-0.529375,-0.561128,-0.539529,-0.564352,-0.499395,-0.511000,-0.516803,-0.491013,-0.520510,-0.520026,-0.520671,-0.559677,-0.545977,-0.522766,-0.537756,-0.522605,-0.535983,-0.515997,-0.515513,-0.515513,-0.501007,-0.491819,-0.483760,-0.465063,-0.508905,-0.507615,-0.495849,-0.436533,-0.426862,-0.409454,-0.425895,-0.430892,-0.366580,-0.410905,-0.364323,-0.359810,-0.348205,-0.354974,-0.315162,-0.338372,-0.322415,-0.310165,-0.348688,-0.319192,-0.320803,-0.324511,-0.361260,-0.344175,-0.396076,-0.365451,-0.439273,-0.428474,-0.454908,-0.545977,-0.569026,-0.625601,-0.618348,-0.669605,-0.740364,-0.781627,-0.775180,-0.796456,-0.829660,-0.843361,-0.917989,-0.897518,-0.888976,-0.898163,-0.888653,-0.892683,-0.884785,-0.840137,-0.898486,-0.817732,-0.873663,-0.827403,-0.849486,-0.820634,-0.793716,-0.813219,-0.764381,-0.775341,-0.723279,-0.721022,-0.739558,-0.678147,-0.675730,-0.644460,-0.649457,-0.672184,-0.653325,-0.631888,-0.627052,-0.652036,-0.620605,-0.652197,-0.644943,-0.604809,-0.624796,-0.606904,-0.564029,-0.589335,-0.529858,-0.550168,-0.534855,-0.548233,-0.530987,-0.508905,-0.493592,-0.521316,-0.519220,-0.481020,-0.466352,-0.510678,-0.468447,-0.494237,-0.496493,-0.470059,-0.450878,-0.477474,-0.440402,-0.447816,-0.465224,-0.419609,-0.462967,-0.441852,-0.427990,-0.468447,-0.475701,-0.434921,-0.433148,-0.438951,-0.465385,-0.451684,-0.434438,-0.455875,-0.452329,-0.421543,-0.455714,-0.458454,-0.417836,-0.421865,-0.425895,-0.451684,-0.436694,-0.475540,-0.453780,-0.465707,-0.429280,-0.419287,-0.440079,-0.459905,-0.447655,-0.430086,-0.404619,-0.425573,-0.421060,-0.421382,-0.446527,-0.428313,-0.454586,-0.418803,-0.459582,-0.457809,-0.412517,-0.416385,-0.413323,-0.413967,-0.407842,-0.429119,-0.417836,-0.391563,-0.430408,-0.403007,-0.377379,-0.397527,-0.403974,-0.401556,-0.451684,-0.405102,-0.407198,-0.407842,-0.398816,-0.443464,-0.404296,-0.388823,-0.428152,-0.390918,-0.376734,-0.400428,-0.392691,-0.415418,-0.394625,-0.431214,-0.427990,-0.441046,-0.386727,-0.396398,-0.384793,-0.385760,-0.387695,-0.394787,-0.383181,-0.381086,-0.436211,-0.380764,-0.387856,-0.415418,-0.408648,-0.400106,-0.434115,-0.425895,-0.430408,-0.425411,-0.395270,-0.365129,-0.421865,-0.397043,-0.407037,-0.423477,-0.371093,-0.379958,-0.357392,-0.378024,-0.426379,-0.405747,-0.400428,-0.379313,-0.384632,-0.386566,-0.377379,-0.388178,-0.375122,-0.369158,-0.391563,-0.410744,-0.403329,-0.378185,-0.370609,-0.339984,-0.355619,-0.355458,-0.366418,-0.357553,-0.394787,-0.347237,-0.356586,-0.394948,-0.344014,-0.355458,-0.343691,-0.385922,-0.378507,-0.327573,-0.368836,-0.331603,-0.313228,-0.319192,-0.340307,-0.366902,-0.343530,-0.338050,-0.329991,-0.378024,-0.327412,-0.348366,-0.339662,-0.334020,-0.324672,-0.334020,-0.372221,-0.332892,-0.384149,-0.302751,-0.373833,-0.347076,-0.371576,-0.366257,-0.341918,-0.387050,-0.390918,-0.388823,-0.355780,-0.355297,-0.352395,-0.361099,-0.357231,-0.339984,-0.349172,-0.379635,-0.363839,-0.386405,-0.381408,-0.411227,-0.423155,-0.380441,-0.424606,-0.399944,-0.393175,-0.408971,-0.411389,-0.408165,-0.451362,-0.422994,-0.450395,-0.410099,-0.421060,-0.414451,-0.443303,-0.471832,-0.485694,-0.451846,-0.462484,-0.459582,-0.502780,-0.509710,-0.513740,-0.478924,-0.471832,-0.475217,-0.488757,-0.464740,-0.477957,-0.455714,-0.477957,-0.506164,-0.540497,-0.531631,-0.544365,-0.523250,-0.516641,-0.520993,-0.578858,-0.515835,-0.517125,-0.557582,-0.514385,-0.567253,-0.508905,-0.511161,-0.558871,-0.517286,-0.543398,-0.536467,-0.540497,-0.582727,-0.561612,-0.588207,-0.558710,-0.537434,-0.580148,-0.568542,-0.546138,-0.531793,-0.575312,-0.563546,-0.541625,-0.548072,-0.575957,-0.550651,-0.575473,-0.568542,-0.595621,-0.555003,-0.571444,-0.560967,-0.598039,-0.589658,-0.560322,-0.540980,-0.579503,-0.586434,-0.564029,-0.557904,-0.552263,-0.552424,-0.574667,-0.580631,-0.593687,-0.579181,-0.554197,-0.595299,-0.596750,-0.596266,-0.595621,-0.553069,-0.537273,-0.570477,-0.537918,-0.554520,-0.546138,-0.583210,-0.582243,-0.596911,-0.591753,-0.589658,-0.548556,-0.566931,-0.544687,-0.549684,-0.548717,-0.587079,-0.582243,-0.541302,-0.575312,-0.536628,-0.563062,-0.578375,-0.565802,-0.572733,-0.584177,-0.541786,-0.550490
 16:26:56.,-0.548233,-0.592236,-0.553069,-0.577891,-0.537112,-0.572411,-0.551296,-0.567092,-0.551296,-0.534210,-0.557904,-0.530342,-0.574667,-0.532599,-0.584822,-0.528569,-0.576279,-0.539852,-0.529052,-0.541947,-0.576602,-0.548717,-0.566125,-0.574184,-0.499234,-0.554842,-0.520026,-0.519704,-0.517931,-0.552263,-0.555809,-0.513901,-0.553391,-0.553230,-0.525668,-0.556776,-0.549684,-0.531309,-0.516158,-0.555970,-0.515513,-0.522283,-0.516319,-0.555648,-0.489724,-0.552263,-0.532921,-0.511967,-0.519059,-0.553714,-0.556615,-0.554681,-0.506487,-0.555487,-0.529536,-0.549362,-0.508905,-0.554681,-0.490852,-0.546783,-0.486500,-0.503908,-0.518737,-0.545332,-0.557904,-0.562417,-0.561450,-0.553069,-0.507454,-0.535177,-0.523572,-0.560322,-0.507454,-0.559033,-0.518414,-0.537273,-0.510194,-0.479408,-0.545171,-0.501490,-0.517447,-0.546138,-0.521638,-0.515835,-0.555003,-0.523250,-0.537756,-0.542431,-0.509710,-0.492303,-0.547105,-0.536306,-0.481987,-0.523572,-0.481987,-0.555325,-0.510194,-0.502780,-0.559194,-0.527279,-0.549039,-0.547911,-0.530342,-0.523089,-0.523733,-0.513095,-0.501974,-0.517447,-0.490530,-0.518576,-0.495365,-0.494559,-0.547105,-0.515513,-0.517125,-0.510516,-0.552263,-0.543237,-0.547266,-0.498266,-0.489079,-0.536628,-0.488757,-0.526796,-0.492464,-0.501329,-0.530987,-0.490368,-0.471026,-0.535822,-0.495849,-0.501651,-0.512451,-0.499717,-0.523733,-0.537756,-0.530826,-0.475378,-0.487628,-0.483115,-0.474089,-0.510678,-0.458293,-0.469253,-0.486339,-0.471349,-0.529375,-0.530181,-0.489724,-0.538562,-0.532437,-0.532437,-0.487790,-0.486016,-0.506970,-0.525506,-0.465869,-0.457003,-0.462806,-0.434921,-0.478924,-0.500523,-0.487145,-0.467803,-0.467964,-0.518576,-0.484405,-0.488112,-0.473283,-0.507776,-0.471188,-0.508743,-0.487628,-0.477313,-0.501490,-0.472961,-0.452974,-0.470382,-0.452652,-0.504875,-0.462967,-0.506970,-0.464096,-0.481342,-0.510839,-0.471349,-0.502135,-0.466997,-0.473283,-0.480697,-0.461194,-0.482954,-0.467319,-0.486178,-0.538885,-0.507293,-0.491819,-0.530826,-0.506003,-0.537918,-0.557260,-0.559839,-0.549845,-0.521960,-0.520187,-0.510516,-0.518414,-0.545493,-0.553552,-0.493431,-0.506164,-0.510516,-0.522283,-0.517286,-0.511161,-0.558549,-0.524862,-0.521799,-0.537595,-0.547105,-0.557904,-0.523089,-0.556615,-0.506164,-0.503585,-0.552585,-0.513418,-0.544043,-0.517931,-0.540819,-0.574990,-0.524862,-0.552746,-0.560161,-0.522766,-0.519865,-0.552102,-0.519220,-0.520993,-0.510516,-0.546783,-0.514224,-0.509872,-0.479730,-0.547750,-0.510839,-0.511645,-0.565480,-0.527602,-0.526635,-0.519704,-0.559516,-0.509710,-0.524378,-0.511000,-0.510678,-0.521316,-0.491819,-0.489240,-0.539529,-0.519865,-0.506970,-0.466352,-0.464740,-0.503102,-0.479569,-0.429119,-0.418964,-0.403974,-0.382214,-0.376734,-0.362228,-0.392852,-0.335793,-0.349333,-0.297109,-0.292919,-0.270998,-0.280024,-0.305169,-0.301461,-0.279218,-0.297754,-0.308553,-0.310004,-0.280024,-0.314195,-0.321448,-0.343369,-0.343691,-0.382053,-0.462000,-0.472799,-0.539207,-0.582404,-0.618993,-0.647200,-0.705387,-0.783561,-0.829338,-0.862703,-0.856255,-0.896874,-0.895101,-0.940877,-0.934268,-0.917183,-0.921696,-0.890588,-0.903160,-0.878338,-0.844167,-0.910735,-0.863992,-0.829015,-0.859157,-0.846262,-0.842716,-0.780821,-0.791459,-0.758094,-0.743749,-0.738430,-0.757127,-0.753420,-0.674924,-0.710545,-0.688141,-0.677664,-0.658161,-0.682983,-0.632855,-0.656065,-0.606743,-0.596105,-0.620605,-0.585789,-0.602391,-0.565158,-0.536628,-0.550651,-0.572411,-0.481503,-0.524862,-0.488595,-0.494076,-0.481503,-0.480214,-0.469092,-0.466674,-0.468125,-0.458454,-0.462645,-0.497299,-0.440724,-0.445559,-0.449267,-0.413645,-0.436211,-0.458938,-0.405747,-0.457165,-0.473767,-0.430408,-0.471671,-0.470543,-0.427668,-0.432504,-0.474411,-0.470543,-0.437823,-0.458938,-0.417352,-0.428474,-0.433954,-0.447655,-0.396560,-0.436050,-0.406875,-0.444270,-0.445882,-0.459260,-0.423477,-0.455230,-0.461355,-0.425573,-0.424767,-0.414129,-0.419448,-0.417836,-0.406553,-0.423800,-0.438790,-0.442013,-0.429441,-0.395270,-0.433309,-0.424606,-0.409132,-0.413323,-0.454747,-0.415579,-0.460711,-0.442175,-0.415257,-0.448622,-0.408971,-0.391402,-0.433148,-0.397043,-0.375283,-0.413000,-0.417675,-0.435727,-0.396882,-0.403007,-0.447816,-0.405425,-0.447494,-0.402846,-0.395754,-0.394948,-0.393658,-0.387211,-0.409293,-0.400106,-0.382537,-0.435888,-0.428958,-0.393981,-0.408810,-0.398816,-0.394948,-0.404135,-0.409616,-0.449911,-0.399783,-0.426379,-0.389951,-0.398333,-0.433471,-0.414129,-0.387695,-0.404619,-0.409938,-0.393658,-0.383181,-0.393497,-0.434599,-0.431698,-0.439273,-0.436372,-0.392208,-0.429925,-0.424122,-0.422349,-0.376412,-0.388017,-0.413000,-0.382698,-0.421221,-0.367708,-0.382537,-0.377862,-0.373510,-0.411227,-0.372382,-0.417191,-0.377379,-0.374800,-0.408326,-0.413000,-0.366580,-0.394625,-0.367869,-0.385277,-0.358682,-0.362389,-0.353846,-0.390757,-0.377701,-0.357070,-0.381731,-0.362228,-0.349172,-0.345303,-0.361260,-0.355941,-0.354491,-0.377862,-0.338211,-0.385438,-0.328540,-0.363839,-0.314840,-0.333859,-0.334504,-0.370931,-0.368514,-0.352395,-0.386566,-0.357231,-0.331925,-0.350945,-0.379152,-0.345626,-0.380602,-0.369481,-0.352557,-0.353846,-0.329185,-0.366902,-0.349494,-0.324511,-0.346109,-0.349172,-0.332731,-0.380441,-0.375928,-0.354652,-0.379958,-0.345948,-0.344820,-0.353685,-0.379152,-0.368030,-0.344175,-0.346270,-0.362228,-0.358682,-0.397204,-0.371899,-0.411389,-0.403652,-0.416385,-0.379635,-0.398010,-0.384310,-0.436211,-0.390757,-0.382053,-0.399622,-0.420092,-0.384310,-0.428474,-0.405908,-0.423638,-0.423155,-0.472638,-0.431214,-0.440240,-0.434277,-0.444270,-0.447655,-0.440240,-0.456520,-0.492625,-0.429925,-0.499234,-0.445882,-0.482148,-0.511000,-0.497138,-0.477474,-0.480214,-0.500684,-0.492141,-0.501168,-0.504391,-0.496493,-0.545654,-0.550973,-0.501490,-0.532276,-0.541625,-0.492786,-0.494559,-0.494398,-0.501168,-0.516480,-0.524862,-0.508099,-0.574506,-0.538079,-0.535983,-0.567575,-0.539691,-0.541141,-0.535177,-0.566447,-0.562417,-0.523411,-0.561128,-0.495365,-0.549362,-0.563707,-0.565158,-0.544848,-0.554197,-0.546299,-0.548395,-0.585950,-0.577408,-0.528408,-0.542108,-0.549200,-0.536628,-0.577891,-0.556776,-0.557260,-0.522928,-0.523250,-0.523733,-0.532760,-0.531954,-0.536467,-0.576440,-0.573378,-0.585306,-0.526312,-0.555164,-0.532437,-0.560967,-0.519381,-0.561450,-0.505036,-0.547589,-0.567414,-0.531470,-0.561773,-0.581115,-0.574829,-0.535661,-0.543075,-0.573539,-0.543237,-0.528891,-0.529375,-0.569510,-0.557582,-0.507937,-0.520026,-0.549200,-0.510355,-0.554520,-0.558388,-0.502941,-0.563223,-0.521799,-0.576440,-0.530987,-0.527763,-0.559033,-0.531148,-0.521799,-0.524539,-0.522444,-0.505197,-0.498750,-0.515997,-0.501329,-0.495526,-0.553552,-0.511161,-0.563062,-0.571121,-0.533727,-0.524539,-0.572572,-0.561128,-0.528408,-0.573700,-0.519704,-0.511967,-0.525506,-0.480214,-0.505842,-0.498750,-0.478924,-0.558388,-0.557421,-0.513740,-0.555648,-0.548395,-0.518737,-0.557743,-0.522122,-0.519704,-0.529697,-0.571605,-0.506326,-0.532115,-0.492625,-0.535177,-0.509227,-0.499234,-0.496816,-0.518576,-0.554358,-0.513901,-0.558066,-0.533566,-0.532921,-0.566125,-0.558388,-0.514707,-0.552585,-0.521155,-0.526957,-0.515674,-0.516803,-0.523411,-0.539691,-0.541464,-0.506648,-0.512128,-0.525506,-0.516964,-0.518253,-0.556937,-0.545816,-0.524217,-0.547427,-0.560967,-0.555325,-0.528085,-0.518092,-0.542270,-0.526312,-0.529858,-0.515352,-0.525345,-0.531793,-0.520993,-0.556293,-0.513901,-0.576763,-0.513579,-0.510678,-0.516964,-0.533888,-0.553714,-0.496655,-0.515352,-0.504553,-0.492303,-0.542592,-0.515997,-0.555325,-0.510516,-0.525184,-0.555970,-0.537918,-0.535822,-0.515674,-0.504875,-0.508421,-0.479730,-0.501007,-0.534372,-0.497944,-0.496171,-0.505036,-0.541141,-0.511645,-0.517125,-0.509066,-0.537434,-0.548717,-0.525506,-0.543075,-0.559677,-0.540497,-0.551941,-0.501651,-0.521155,-0.472316,-0.496816,-0.480053,-0.508099,-0.508905,-0.534210,-0.557260,-0.560644,-0.553391,-0.532921,-0.512451,-0.545493,-0.515997,-0.506970,-0.535016,-0.531148,-0.504069,-0.478924,-0.501007,-0.481665,-0.494398,-0.540819,-0.541625,-0.505520,-0.519543,-0.551457,-0.512934,-0.508260,-0.533888,-0.541464,-0.501007,-0.534533,-0.506809,-0.505842,-0.487467,-0.504391,-0.500362,-0.525023,-0.508905,-0.508905,-0.547266,-0.518576,-0.505197,-0.496171,-0.546622,-0.505036,-0.498266,-0.512612,-0.540013,-0.506970,-0.538240,-0.515513,-0.530664,-0.505520,-0.502618,-0.545654,-0.511000,-0.509227,-0.510516,-0.551135,-0.510839,-0.515191,-0.500523,-0.525506,-0.494559,-0.482470,-0.470865,-0.474895,-0.463934,-0.474895,-0.480214,-0.490530,-0.475217,-0.504069,-0.493914,-0.485855,-0.492464,-0.493753,-0.485533,-0.488918,-0.483760,-0.465546,-0.489724,-0.466513,-0.486500,-0.516964,-0.474411,-0.502135,-0.521477,-0.491013,-0.481342,-0.521799,-0.527279,-0.535661,-0.525990,-0.479892,-0.495204,-0.516641,-0.508905,-0.465869,-0.521799,-0.492625,-0.456036,-0.478602,-0.457003,-0.510516,-0.476507,-0.462323,-0.468770,-0.503585,-0.467964,-0.468931,-0.463128,-0.489079,-0.445559,-0.497783,-0.467964,-0.458132,-0.445882,-0.483276,-0.499878,-0.495043,-0.462484,-0.473283,-0.462806,-0.471832,-0.506970,-0.487467,-0.458293,-0.514062,-0.486822,-0.498911,-0.472316,-0.477796,-0.462484,-0.484888,-0.512451,-0.521638,-0.514062,-0.496655,-0.530826,-0.505036,-0.503585,-0.536306,-0.536306,-0.532921,-0.538240,-0.498266,-0.511806,-0.524701,-0.494398,-0.534533,-0.520832,-0.492141,-0.539691,-0.540658,-0.518253,-0.501974,-0.514707,-0.549523,-0.530020,-0.550812,-0.554520,-0.545654,-0.506003,-0.523089,-0.543075,-0.549039,-0.497299,-0.530664,-0.519381,-0.494720,-0.501974,-0.514062,-0.545816,-0.527118,-0.534533,-0.507454,-0.538401,-0.510516,-0.509227,-0.549845,-0.513740,-0.493109,-0.497783,-0.496977,-0.519220,-0.520993,-0.515191,-0.514546,-0.557743,-0.523572,-0.521155,-0.560483,-0.565641,-0.559355,-0.522766,-0.529697,-0.491658,-0.505197,-0.494559,-0.495204,-0.492625,-0.491819,-0.481342,-0.488273,-0.444915,-0.459582,-0.447816,-0.430086,-0.364001,-0.362711,-0.339178,-0.359487,-0.348527,-0.285504,-0.319030,-0.274705,-0.249399,-0.229412,-0.293402,-0.284215,-0.277929,-0.281636
 16:26:57.,-0.285665,-0.296948,-0.266485,-0.267935,-0.327573,-0.320320,-0.358037,-0.391885,-0.481826,-0.491980,-0.530342,-0.623184,-0.675568,-0.729404,-0.771956,-0.841265,-0.867538,-0.903643,-0.964893,-0.946841,-1.014699,-0.973758,-1.016633,-0.986008,-0.948614,-0.984719,-0.927337,-0.896390,-0.931851,-0.913314,-0.885430,-0.917989,-0.860446,-0.874147,-0.839170,-0.829176,-0.784851,-0.809190,-0.753098,-0.771795,-0.764864,-0.699907,-0.664124,-0.661223,-0.640269,-0.683789,-0.635111,-0.628825,-0.659934,-0.611095,-0.636884,-0.579019,-0.578858,-0.586111,-0.540980,-0.534049,-0.514707,-0.560806,-0.547750,-0.495043,-0.532760,-0.484405,-0.511322,-0.470865,-0.515674,-0.466674,-0.513095,-0.482470,-0.508260,-0.509066,-0.447010,-0.491174,-0.468447,-0.452007,-0.474250,-0.445882,-0.427507,-0.466352,-0.480536,-0.423155,-0.431536,-0.449105,-0.434599,-0.430247,-0.426862,-0.440079,-0.432342,-0.442013,-0.425734,-0.425573,-0.429925,-0.462000,-0.414451,-0.419931,-0.399461,-0.429602,-0.416708,-0.406231,-0.468770,-0.422027,-0.429441,-0.469898,-0.422027,-0.437178,-0.449267,-0.459260,-0.424122,-0.424283,-0.456842,-0.409132,-0.476507,-0.433954,-0.411389,-0.445882,-0.418319,-0.419609,-0.439434,-0.457326,-0.416546,-0.432020,-0.414290,-0.422027,-0.418803,-0.425573,-0.416708,-0.413162,-0.388339,-0.430731,-0.406392,-0.406875,-0.457809,-0.417836,-0.409777,-0.435727,-0.416708,-0.403652,-0.405425,-0.417352,-0.450878,-0.461355,-0.432665,-0.451201,-0.452813,-0.396882,-0.390435,-0.433632,-0.394625,-0.397366,-0.405102,-0.444431,-0.408004,-0.409454,-0.434760,-0.408971,-0.409293,-0.392852,-0.410260,-0.407842,-0.430247,-0.392208,-0.386083,-0.411872,-0.408326,-0.403007,-0.391079,-0.405425,-0.406553,-0.403329,-0.402685,-0.408648,-0.398010,-0.399300,-0.418803,-0.433471,-0.422349,-0.382537,-0.394948,-0.369320,-0.355941,-0.402523,-0.379152,-0.376089,-0.429441,-0.387533,-0.393820,-0.415257,-0.440724,-0.415418,-0.415418,-0.413162,-0.368353,-0.371737,-0.356909,-0.373994,-0.361099,-0.366257,-0.355135,-0.367063,-0.361099,-0.358682,-0.407520,-0.362872,-0.359004,-0.409938,-0.355135,-0.386727,-0.362550,-0.376895,-0.379313,-0.352073,-0.325961,-0.356103,-0.355941,-0.343853,-0.377379,-0.404135,-0.385116,-0.396560,-0.393658,-0.398977,-0.329991,-0.340468,-0.377218,-0.347399,-0.374155,-0.336116,-0.339340,-0.354652,-0.335793,-0.326445,-0.372704,-0.331764,-0.341918,-0.345303,-0.357714,-0.362066,-0.348205,-0.351912,-0.351912,-0.379313,-0.358520,-0.345787,-0.337889,-0.343530,-0.363678,-0.330636,-0.361260,-0.383665,-0.349011,-0.369158,-0.372221,-0.366096,-0.378507,-0.397527,-0.384310,-0.381731,-0.387695,-0.429763,-0.384793,-0.374639,-0.384310,-0.417675,-0.418319,-0.434599,-0.434760,-0.444754,-0.449267,-0.432020,-0.427990,-0.416869,-0.427185,-0.451523,-0.434921,-0.442658,-0.474895,-0.446204,-0.453457,-0.447655,-0.445398,-0.481020,-0.463934,-0.517608,-0.476507,-0.473767,-0.520187,-0.492625,-0.507776,-0.498589,-0.499717,-0.540335,-0.497944,-0.497783,-0.489079,-0.498266,-0.486339,-0.493109,-0.502457,-0.512934,-0.549845,-0.512289,-0.524378,-0.528891,-0.520671,-0.525023,-0.524378,-0.570315,-0.523733,-0.523572,-0.551618,-0.528408,-0.550329,-0.491336,-0.568865,-0.565964,-0.531309,-0.574184,-0.542592,-0.542592,-0.540497,-0.574829,-0.552746,-0.575312,-0.532276,-0.535339,-0.534210,-0.566769,-0.533566,-0.513418,-0.562740,-0.545171,-0.514868,-0.536306,-0.548556,-0.564513,-0.541625,-0.543720,-0.592398,-0.547589,-0.556776,-0.577891,-0.535661,-0.527441,-0.537918,-0.500684,-0.538401,-0.522766,-0.551941,-0.508743,-0.565802,-0.534855,-0.567898,-0.550006,-0.572894,-0.547427,-0.569671,-0.577730,-0.537595,-0.559516,-0.571121,-0.545654,-0.549684,-0.563546,-0.506003,-0.564835,-0.529052,-0.528891,-0.539529,-0.575473,-0.536467,-0.544687,-0.548878,-0.577730,-0.577730,-0.570799,-0.511000,-0.572572,-0.505681,-0.501329,-0.524217,-0.528247,-0.531309,-0.562417,-0.578536,-0.540819,-0.583694,-0.542270,-0.587885,-0.535177,-0.537273,-0.571766,-0.556454,-0.516641,-0.524701,-0.563385,-0.511967,-0.526312,-0.525668,-0.537273,-0.570477,-0.573862,-0.523733,-0.538401,-0.557260,-0.522928,-0.574506,-0.518576,-0.568865,-0.556615,-0.511645,-0.517931,-0.513418,-0.512773,-0.519059,-0.534210,-0.524056,-0.542108,-0.573217,-0.528891,-0.551941,-0.542592,-0.528085,-0.534694,-0.577408,-0.525829,-0.527763,-0.520671,-0.516319,-0.512289,-0.531954,-0.506970,-0.568704,-0.579664,-0.530342,-0.550006,-0.562579,-0.585628,-0.544687,-0.572894,-0.577730,-0.575957,-0.572089,-0.553714,-0.533566,-0.497299,-0.562095,-0.571121,-0.510355,-0.546783,-0.526312,-0.518253,-0.525023,-0.563868,-0.557260,-0.544687,-0.566447,-0.562095,-0.573378,-0.569993,-0.535661,-0.537434,-0.553875,-0.536628,-0.503263,-0.509227,-0.565158,-0.525990,-0.569993,-0.550973,-0.535983,-0.542108,-0.533566,-0.578213,-0.521638,-0.567253,-0.526151,-0.503263,-0.527279,-0.517286,-0.497944,-0.520349,-0.563385,-0.523733,-0.517608,-0.566125,-0.561934,-0.568865,-0.521799,-0.571121,-0.571283,-0.564191,-0.505681,-0.519220,-0.499556,-0.538401,-0.551296,-0.513901,-0.549523,-0.521316,-0.517931,-0.514546,-0.526312,-0.518253,-0.505520,-0.522122,-0.559194,-0.551135,-0.512451,-0.504391,-0.517770,-0.489401,-0.487467,-0.528730,-0.504875,-0.502618,-0.559033,-0.528247,-0.501168,-0.516319,-0.548717,-0.548395,-0.513901,-0.538079,-0.530503,-0.503908,-0.503908,-0.543237,-0.544848,-0.528891,-0.516319,-0.547105,-0.500039,-0.540658,-0.517286,-0.508743,-0.509872,-0.552585,-0.516319,-0.511322,-0.547427,-0.508260,-0.509872,-0.544848,-0.498105,-0.523411,-0.517608,-0.492303,-0.509549,-0.494398,-0.531309,-0.514224,-0.551135,-0.528569,-0.530181,-0.559677,-0.554358,-0.524539,-0.498428,-0.504875,-0.503102,-0.489885,-0.493109,-0.488273,-0.498266,-0.518253,-0.495204,-0.494882,-0.506487,-0.505842,-0.496493,-0.504875,-0.506648,-0.493753,-0.545171,-0.502941,-0.501329,-0.517770,-0.476184,-0.475701,-0.526474,-0.509388,-0.508421,-0.508260,-0.549523,-0.510194,-0.529536,-0.497783,-0.541302,-0.500523,-0.491174,-0.538885,-0.519704,-0.478763,-0.542914,-0.501168,-0.520671,-0.484566,-0.486822,-0.511322,-0.487951,-0.490530,-0.532437,-0.493914,-0.548233,-0.533888,-0.495688,-0.530664,-0.541464,-0.528408,-0.518898,-0.485372,-0.507132,-0.459905,-0.487467,-0.472477,-0.521316,-0.485372,-0.506648,-0.532276,-0.499234,-0.526312,-0.523572,-0.539368,-0.530020,-0.536789,-0.524539,-0.481503,-0.485211,-0.465224,-0.514385,-0.484727,-0.475217,-0.491174,-0.490852,-0.535983,-0.533888,-0.539368,-0.527924,-0.486500,-0.533082,-0.498428,-0.502780,-0.527118,-0.459744,-0.490046,-0.518414,-0.486500,-0.473767,-0.520026,-0.532437,-0.520671,-0.489563,-0.516158,-0.482793,-0.502457,-0.481987,-0.484082,-0.465063,-0.503102,-0.473605,-0.460549,-0.458615,-0.461033,-0.493431,-0.475217,-0.478763,-0.470382,-0.463451,-0.464579,-0.466352,-0.456359,-0.462000,-0.507615,-0.464579,-0.474411,-0.452652,-0.496655,-0.462161,-0.438467,-0.481342,-0.439434,-0.433793,-0.461839,-0.471026,-0.497783,-0.488434,-0.449589,-0.493431,-0.462323,-0.458293,-0.463290,-0.463934,-0.493431,-0.448944,-0.480859,-0.431536,-0.439757,-0.456198,-0.441046,-0.495688,-0.457165,-0.445076,-0.487145,-0.487951,-0.472155,-0.445398,-0.440079,-0.468609,-0.450234,-0.479086,-0.408810,-0.472799,-0.435244,-0.398010,-0.428474,-0.421221,-0.438951,-0.428635,-0.438306,-0.440563,-0.481665,-0.467319,-0.415579,-0.474089,-0.426379,-0.473283,-0.446688,-0.413967,-0.476023,-0.447977,-0.492464,-0.502457,-0.475862,-0.520671,-0.480859,-0.522444,-0.522444,-0.491013,-0.543075,-0.491013,-0.503747,-0.486661,-0.484888,-0.486984,-0.509549,-0.517447,-0.477635,-0.511645,-0.529375,-0.518576,-0.504714,-0.496171,-0.505036,-0.535016,-0.506326,-0.496332,-0.482954,-0.527602,-0.482632,-0.523572,-0.528891,-0.463451,-0.499556,-0.494882,-0.488918,-0.529375,-0.503102,-0.499717,-0.536628,-0.515997,-0.487790,-0.507615,-0.539852,-0.538724,-0.536306,-0.490368,-0.500684,-0.511645,-0.502296,-0.473605,-0.537112,-0.493592,-0.533566,-0.510194,-0.502457,-0.500684,-0.508743,-0.521316,-0.499072,-0.499717,-0.519543,-0.484405,-0.491497,-0.465385,-0.456842,-0.466836,-0.434599,-0.433471,-0.453619,-0.388500,-0.402362,-0.410744,-0.391402,-0.337889,-0.358198,-0.295336,-0.284054,-0.312744,-0.242952,-0.282119,-0.275350,-0.227639,-0.240212,-0.252139,-0.231347,-0.260682,-0.264712,-0.294692,-0.305007,-0.289695,-0.301784,-0.335632,-0.357714,-0.426379,-0.475056,-0.559839,-0.627374,-0.639302,-0.721667,-0.759062,-0.769216,-0.837558,-0.935074,-0.921212,-0.971824,-0.979400,-1.020985,-0.994068,-1.002288,-0.995841,-1.005028,-0.974564,-0.953127,-0.990360,-0.924275,-0.877693,-0.936203,-0.847551,-0.842071,-0.859963,-0.796617,-0.804677,-0.777598,-0.767121,-0.742621,-0.728598,-0.716187,-0.691848,-0.681693,-0.635111,-0.675246,-0.650585,-0.590463,-0.589496,-0.602875,-0.566125,-0.595944,-0.584338,-0.560483,-0.527924,-0.524378,-0.508099,-0.506326,-0.492786,-0.521477,-0.523572,-0.503585,-0.477151,-0.455553,-0.447816,-0.477957,-0.485855,-0.457809,-0.442336,-0.444109,-0.444109,-0.445882,-0.442497,-0.428474,-0.436856,-0.432020,-0.460066,-0.411711,-0.397366,-0.471026,-0.411550,-0.417030,-0.461678,-0.416546,-0.455875,-0.454425,-0.422671,-0.447332,-0.468609,-0.408326,-0.459421,-0.429441,-0.413162,-0.426540,-0.439596,-0.422510,-0.413323,-0.435888,-0.443948,-0.415902,-0.407520,-0.432181,-0.421382,-0.456842,-0.414129,-0.456198,-0.433954,-0.415418,-0.455069,-0.436211,-0.445237,-0.393175,-0.395754,-0.416063,-0.379635,-0.427023,-0.406714,-0.447655,-0.422833,-0.403974,-0.404296,-0.453296,-0.412839,-0.449105,-0.456359,-0.409293,-0.397527,-0.450717,-0.392208,-0.385116,-0.440885,-0.377379,-0.406392,-0.398655,-0.436211,-0.404458,-0.413645,-0.439434,-0.442175,-0.433954,-0.440079,-0.404941,-0.404619,-0.433793,-0.408326,-0.418319,-0.396721,-0.392852,-0.359165,-0.432504,-0.397204,-0.398816,-0.391241,-0.403491,-0.433954,-0.424928,-0.395109,-0.388984,-0.438306,-0.393497,-0.378991,-0.438951,-0.369803,-0.412517,-0.367385,-0.371576,-0.387533,-0.388500,-0.390112,-0.436050,-0.385438,-0.429602,-0.403168,-0.426540,-0.388500,-0.382375,-0.425089,-0.368675,-0.419125,-0.356909,-0.400267,-0.358520,-0.358520,-0.374316,-0.416385,-0.367708
 16:26:58.,-0.380441,-0.378024,-0.371093,-0.370126,-0.389145,-0.419931,-0.373510,-0.373833,-0.348527,-0.406069,-0.351751,-0.329991,-0.395593,-0.349655,-0.352234,-0.360293,-0.399300,-0.347721,-0.381247,-0.344175,-0.380280,-0.395915,-0.381086,-0.350300,-0.341113,-0.349494,-0.379152,-0.348366,-0.318869,-0.329185,-0.363356,-0.334665,-0.381247,-0.346270,-0.345626,-0.385116,-0.339984,-0.384149,-0.341757,-0.329185,-0.343853,-0.330474,-0.308553,-0.322415,-0.316451,-0.323060,-0.330474,-0.370770,-0.353362,-0.338534,-0.332409,-0.327090,-0.374961,-0.349816,-0.359810,-0.349011,-0.378185,-0.378024,-0.343369,-0.322738,-0.379152,-0.343691,-0.326767,-0.340629,-0.395431,-0.348205,-0.389468,-0.401073,-0.371415,-0.380280,-0.368353,-0.365129,-0.377540,-0.387533,-0.414451,-0.424606,-0.418803,-0.380119,-0.397527,-0.392369,-0.377701,-0.444270,-0.444915,-0.423155,-0.422510,-0.423638,-0.433471,-0.465546,-0.434921,-0.430086,-0.427346,-0.427185,-0.440724,-0.481020,-0.446688,-0.460872,-0.452813,-0.505842,-0.475217,-0.461517,-0.518092,-0.522122,-0.521477,-0.484082,-0.479086,-0.486661,-0.533888,-0.488595,-0.480859,-0.497622,-0.481020,-0.520026,-0.508099,-0.521477,-0.538724,-0.565641,-0.553714,-0.518253,-0.520832,-0.526957,-0.553875,-0.534210,-0.542914,-0.524539,-0.514224,-0.503585,-0.558549,-0.508260,-0.557098,-0.526474,-0.510516,-0.506487,-0.525829,-0.553552,-0.531954,-0.569026,-0.532921,-0.534533,-0.573862,-0.573056,-0.526635,-0.571444,-0.514707,-0.516803,-0.510194,-0.523250,-0.567575,-0.557743,-0.543398,-0.529697,-0.512934,-0.543398,-0.530020,-0.528569,-0.534533,-0.564513,-0.522928,-0.522605,-0.546622,-0.548717,-0.517125,-0.538240,-0.484888,-0.517125,-0.542914,-0.519704,-0.561612,-0.573539,-0.531470,-0.533888,-0.561128,-0.578858,-0.531631,-0.556776,-0.522283,-0.549200,-0.494882,-0.552102,-0.495365,-0.495849,-0.518737,-0.497944,-0.518092,-0.538885,-0.511161,-0.521638,-0.528569,-0.543075,-0.530826,-0.521960,-0.513740,-0.508421,-0.548395,-0.525023,-0.544043,-0.515352,-0.539046,-0.524217,-0.541947,-0.552746,-0.550490,-0.523733,-0.542914,-0.546944,-0.500845,-0.527763,-0.513418,-0.544687,-0.498428,-0.532760,-0.517286,-0.523411,-0.522122,-0.505842,-0.550651,-0.505197,-0.554197,-0.514385,-0.559194,-0.564835,-0.519059,-0.535983,-0.548878,-0.553714,-0.508421,-0.531470,-0.495849,-0.474089,-0.492625,-0.537434,-0.510194,-0.494720,-0.538724,-0.495204,-0.510355,-0.551135,-0.547750,-0.517608,-0.503585,-0.522122,-0.506164,-0.502618,-0.483760,-0.525345,-0.511967,-0.498589,-0.505197,-0.486339,-0.509388,-0.537273,-0.547105,-0.522283,-0.510033,-0.499878,-0.511967,-0.539691,-0.492303,-0.502135,-0.526957,-0.494559,-0.492141,-0.477957,-0.512289,-0.490691,-0.495688,-0.488112,-0.512128,-0.551941,-0.518414,-0.529375,-0.551618,-0.507454,-0.510839,-0.511483,-0.531793,-0.481342,-0.527118,-0.488273,-0.489401,-0.515674,-0.501329,-0.547105,-0.535661,-0.513257,-0.499072,-0.495043,-0.549684,-0.533404,-0.544687,-0.510678,-0.540335,-0.505520,-0.492786,-0.467480,-0.526796,-0.532437,-0.509710,-0.509388,-0.501974,-0.512773,-0.551135,-0.518576,-0.538401,-0.516641,-0.493109,-0.503908,-0.505359,-0.540013,-0.532760,-0.490530,-0.515997,-0.515674,-0.488112,-0.493592,-0.499072,-0.544526,-0.495365,-0.511161,-0.509066,-0.545654,-0.527441,-0.502135,-0.510355,-0.510839,-0.499556,-0.497461,-0.538240,-0.530664,-0.494882,-0.501329,-0.508421,-0.541786,-0.514546,-0.492786,-0.505520,-0.505520,-0.488757,-0.527763,-0.550812,-0.545977,-0.538240,-0.517125,-0.511322,-0.532276,-0.485533,-0.481342,-0.530664,-0.482632,-0.513579,-0.541786,-0.498266,-0.505197,-0.502618,-0.540013,-0.542108,-0.546783,-0.494398,-0.543881,-0.499234,-0.481503,-0.532599,-0.483276,-0.479408,-0.546138,-0.530987,-0.498911,-0.504714,-0.499234,-0.500845,-0.535016,-0.496171,-0.554681,-0.505681,-0.496977,-0.535016,-0.526635,-0.495204,-0.489724,-0.484082,-0.501168,-0.542270,-0.533888,-0.517931,-0.518576,-0.544365,-0.506003,-0.516480,-0.510516,-0.513257,-0.540013,-0.492303,-0.505520,-0.505842,-0.514868,-0.495043,-0.471832,-0.494720,-0.502618,-0.526635,-0.506970,-0.538401,-0.508582,-0.503585,-0.544526,-0.515030,-0.497783,-0.517286,-0.541786,-0.534210,-0.499234,-0.476023,-0.504230,-0.486178,-0.495526,-0.532760,-0.540980,-0.544043,-0.515674,-0.517931,-0.521316,-0.554197,-0.505359,-0.539852,-0.509549,-0.493109,-0.506487,-0.532437,-0.469576,-0.503424,-0.496010,-0.523250,-0.494559,-0.494720,-0.503263,-0.540658,-0.540497,-0.502618,-0.553230,-0.497783,-0.504391,-0.519059,-0.538885,-0.488112,-0.542108,-0.518898,-0.521638,-0.511322,-0.494559,-0.500845,-0.508905,-0.543075,-0.503747,-0.546783,-0.504230,-0.500523,-0.509710,-0.496010,-0.506970,-0.498750,-0.528085,-0.529375,-0.466352,-0.527441,-0.524378,-0.484405,-0.527279,-0.521638,-0.501974,-0.540174,-0.517770,-0.532599,-0.487145,-0.545654,-0.493431,-0.501974,-0.488112,-0.483276,-0.521638,-0.512128,-0.484405,-0.498266,-0.496171,-0.508099,-0.545816,-0.498750,-0.496010,-0.510678,-0.544687,-0.499878,-0.503263,-0.514062,-0.539368,-0.492464,-0.519543,-0.519381,-0.490368,-0.470865,-0.473283,-0.531954,-0.475701,-0.493270,-0.485372,-0.524056,-0.483921,-0.517608,-0.481020,-0.481503,-0.490530,-0.508743,-0.474895,-0.477635,-0.498750,-0.519865,-0.442819,-0.467803,-0.485211,-0.469415,-0.481020,-0.511483,-0.515030,-0.501974,-0.472799,-0.473605,-0.518898,-0.518576,-0.495688,-0.458615,-0.480375,-0.452007,-0.470543,-0.498266,-0.472155,-0.478924,-0.483760,-0.459260,-0.513579,-0.472477,-0.481181,-0.511161,-0.505197,-0.467158,-0.473928,-0.483760,-0.452652,-0.485049,-0.465063,-0.417997,-0.441369,-0.445076,-0.495365,-0.453780,-0.452652,-0.507293,-0.496655,-0.491980,-0.454908,-0.446527,-0.473767,-0.446849,-0.448138,-0.428635,-0.480536,-0.416224,-0.449267,-0.495688,-0.464096,-0.470543,-0.511322,-0.467964,-0.509066,-0.474895,-0.486016,-0.521155,-0.499556,-0.477957,-0.496493,-0.517125,-0.468286,-0.513901,-0.467158,-0.496493,-0.514062,-0.505036,-0.505681,-0.509066,-0.502780,-0.508260,-0.510355,-0.521638,-0.546138,-0.510516,-0.495365,-0.515352,-0.523089,-0.485533,-0.509066,-0.480375,-0.500039,-0.506970,-0.506164,-0.549684,-0.516319,-0.524701,-0.519865,-0.533243,-0.551618,-0.525023,-0.547911,-0.539691,-0.548878,-0.489563,-0.498105,-0.493270,-0.546460,-0.521960,-0.502780,-0.515674,-0.550651,-0.516964,-0.553552,-0.545977,-0.517931,-0.551296,-0.548878,-0.548395,-0.496977,-0.490368,-0.474411,-0.506809,-0.528730,-0.486661,-0.537273,-0.510033,-0.489563,-0.496010,-0.524378,-0.468125,-0.495849,-0.454102,-0.434115,-0.399622,-0.362389,-0.393014,-0.349655,-0.300011,-0.348849,-0.298077,-0.314678,-0.270192,-0.281313,-0.251011,-0.251656,-0.251011,-0.242791,-0.271642,-0.275027,-0.247787,-0.270192,-0.251656,-0.309359,-0.347399,-0.337566,-0.363356,-0.420576,-0.462645,-0.528408,-0.640914,-0.683466,-0.767282,-0.811769,-0.869634,-0.877370,-0.946357,-0.979722,-0.971985,-1.010508,-0.996647,-0.990844,-0.990038,-1.056929,-0.994229,-0.998258,-0.981012,-0.978433,-0.967150,-0.980850,-0.961831,-0.923630,-0.923469,-0.887847,-0.834334,-0.817894,-0.799357,-0.769055,-0.733917,-0.731499,-0.704420,-0.684272,-0.681049,-0.718282,-0.655743,-0.652197,-0.664124,-0.651874,-0.603358,-0.618026,-0.565641,-0.555648,-0.533082,-0.551618,-0.508905,-0.482954,-0.525506,-0.480536,-0.470704,-0.478441,-0.478763,-0.494720,-0.474089,-0.464901,-0.454747,-0.449428,-0.448944,-0.482470,-0.446365,-0.464096,-0.426701,-0.467480,-0.425895,-0.456036,-0.414935,-0.415902,-0.426217,-0.425411,-0.416546,-0.420737,-0.457971,-0.407520,-0.458293,-0.468609,-0.421704,-0.424444,-0.407198,-0.418803,-0.444754,-0.395109,-0.410905,-0.442497,-0.408165,-0.415257,-0.462967,-0.456681,-0.413967,-0.415096,-0.403652,-0.452490,-0.403168,-0.445076,-0.412678,-0.437823,-0.405425,-0.394464,-0.376734,-0.393820,-0.383343,-0.394142,-0.403007,-0.395593,-0.441369,-0.401234,-0.446527,-0.450234,-0.451362,-0.403168,-0.404941,-0.405586,-0.425411,-0.391563,-0.423316,-0.426056,-0.433148,-0.382698,-0.399300,-0.406392,-0.410260,-0.438790,-0.406553,-0.431859,-0.407681,-0.401718,-0.419125,-0.432342,-0.384793,-0.409777,-0.393820,-0.400267,-0.403652,-0.389306,-0.415902,-0.398816,-0.392047,-0.432665,-0.389629,-0.421060,-0.440402,-0.391563,-0.435566,-0.383665,-0.404619,-0.420898,-0.392047,-0.388984,-0.352718,-0.390435,-0.388017,-0.410421,-0.392691,-0.375283,-0.419609,-0.384471,-0.418319,-0.388823,-0.376734,-0.420092,-0.407520,-0.413323,-0.350139,-0.373510,-0.405908,-0.403168,-0.381247,-0.367547,-0.374316,-0.376089,-0.376734,-0.411227,-0.393497,-0.365290,-0.383181,-0.369158,-0.378507,-0.373994,-0.405908,-0.383987,-0.350139,-0.334504,-0.351912,-0.360293,-0.349816,-0.391079,-0.363195,-0.350622,-0.352557,-0.349333,-0.347076,-0.346109,-0.337889,-0.340629,-0.336116,-0.374639,-0.333537,-0.337405,-0.319514,-0.363033,-0.360938,-0.365774,-0.333215,-0.319675,-0.370126,-0.370448,-0.336922,-0.326284,-0.348527,-0.321609,-0.333376,-0.352557,-0.359810,-0.326606,-0.361099,-0.350945,-0.368675,-0.323060,-0.325961,-0.345787,-0.343369,-0.372060,-0.337244,-0.341113,-0.357714,-0.353201,-0.365935,-0.361905,-0.320803,-0.324994,-0.374800,-0.341435,-0.318708,-0.336116,-0.365935,-0.359326,-0.342886,-0.369481,-0.362228,-0.353846,-0.350945,-0.343530,-0.344175,-0.349333,-0.391402,-0.345303,-0.400428,-0.361422,-0.396882,-0.379313,-0.362389,-0.367869,-0.378507,-0.381731,-0.429119,-0.408648,-0.393820,-0.442819,-0.415257,-0.409293,-0.464740,-0.397366,-0.411872,-0.468609,-0.439434,-0.474089,-0.426862,-0.479569,-0.448138,-0.456520,-0.467642,-0.465063,-0.508582,-0.465546,-0.480214,-0.511322,-0.479730,-0.481826,-0.509549,-0.480536,-0.490368,-0.470865,-0.516803,-0.486178,-0.491336,-0.520187,-0.537918,-0.551941,-0.524862,-0.509549,-0.516641,-0.510355,-0.558549,-0.560483,-0.511322,-0.507937,-0.551618,-0.492464,-0.504553,-0.503424,-0.502296,-0.537112,-0.516641,-0.571927,-0.572411,-0.567575,-0.575473,-0.522766,-0.547105,-0.575796,-0.573700,-0.575796,-0.517608,-0.505842,-0.523733,-0.559355,-0.542108,-0.559839,-0.543237,-0.556937,-0.553714,-0.540819,-0.562417,-0.549039,-0.576602,-0.543559,-0.540980,-0.526474,-0.535661,-0.577408,-0.562095,-0.561934,-0.529536,-0.523733,-0.534533,-0.580470
 16:26:59.,-0.574023,-0.581276,-0.542431,-0.538724,-0.530342,-0.579987,-0.578375,-0.576602,-0.575473,-0.527441,-0.519704,-0.542270,-0.514062,-0.514224,-0.500523,-0.530181,-0.543075,-0.529375,-0.538724,-0.539529,-0.555164,-0.532599,-0.574667,-0.570477,-0.569832,-0.513095,-0.529697,-0.521316,-0.539046,-0.549845,-0.502135,-0.502457,-0.531470,-0.535177,-0.570638,-0.541625,-0.527602,-0.515191,-0.560644,-0.532599,-0.537112,-0.533566,-0.561289,-0.562901,-0.523250,-0.503908,-0.509388,-0.548556,-0.554197,-0.534049,-0.524378,-0.533243,-0.534049,-0.516641,-0.534855,-0.534855,-0.519704,-0.544526,-0.562417,-0.519059,-0.523733,-0.505520,-0.532921,-0.494076,-0.513257,-0.528247,-0.565964,-0.559516,-0.527279,-0.532760,-0.522122,-0.536145,-0.564835,-0.560644,-0.528085,-0.551941,-0.548878,-0.545010,-0.489885,-0.539691,-0.500201,-0.504230,-0.561612,-0.530987,-0.558549,-0.547911,-0.538079,-0.559194,-0.567575,-0.519381,-0.520671,-0.533243,-0.497944,-0.510033,-0.540174,-0.490046,-0.536950,-0.543720,-0.541464,-0.514062,-0.555164,-0.550329,-0.526151,-0.546783,-0.520510,-0.537112,-0.540174,-0.529375,-0.516158,-0.521638,-0.559839,-0.551296,-0.491819,-0.499395,-0.544687,-0.544043,-0.554520,-0.518414,-0.556776,-0.522122,-0.506326,-0.518092,-0.531954,-0.543075,-0.553875,-0.554520,-0.498911,-0.501974,-0.510839,-0.520349,-0.497622,-0.494237,-0.543720,-0.518092,-0.508582,-0.552585,-0.519220,-0.511000,-0.532115,-0.511483,-0.500523,-0.535983,-0.512289,-0.489240,-0.540980,-0.479892,-0.529375,-0.543559,-0.527602,-0.502296,-0.515674,-0.552585,-0.549684,-0.516158,-0.571927,-0.524056,-0.548556,-0.553391,-0.546622,-0.501490,-0.536789,-0.536628,-0.517286,-0.519381,-0.536950,-0.503424,-0.563385,-0.514868,-0.518092,-0.531148,-0.526151,-0.567253,-0.524378,-0.556776,-0.525023,-0.513418,-0.497944,-0.559194,-0.529052,-0.521477,-0.561934,-0.548878,-0.540658,-0.562579,-0.513095,-0.560161,-0.524539,-0.560322,-0.563707,-0.511645,-0.526151,-0.514707,-0.508260,-0.499556,-0.502941,-0.500845,-0.518898,-0.504069,-0.506487,-0.554681,-0.523895,-0.510033,-0.519865,-0.547427,-0.508421,-0.551618,-0.552424,-0.534210,-0.554358,-0.505197,-0.550329,-0.545977,-0.520026,-0.547911,-0.530987,-0.538401,-0.529214,-0.502135,-0.508743,-0.516480,-0.516319,-0.511806,-0.505197,-0.501974,-0.515997,-0.535983,-0.504069,-0.537434,-0.527763,-0.509872,-0.524701,-0.487628,-0.532115,-0.544848,-0.541141,-0.539207,-0.545010,-0.549684,-0.513418,-0.542431,-0.514224,-0.548072,-0.486984,-0.540174,-0.536145,-0.500523,-0.511806,-0.519059,-0.510033,-0.545010,-0.501812,-0.504391,-0.513095,-0.513740,-0.545977,-0.508260,-0.541947,-0.510355,-0.544687,-0.510516,-0.548233,-0.518737,-0.488595,-0.494398,-0.478924,-0.537595,-0.512451,-0.505842,-0.507937,-0.508743,-0.546622,-0.506809,-0.524701,-0.540174,-0.506970,-0.532115,-0.514385,-0.503908,-0.484082,-0.523895,-0.516480,-0.499717,-0.508099,-0.532599,-0.545493,-0.542108,-0.506487,-0.501812,-0.565480,-0.511000,-0.547589,-0.534049,-0.488273,-0.492464,-0.513901,-0.484243,-0.505520,-0.473283,-0.522605,-0.546299,-0.511000,-0.507937,-0.510355,-0.543075,-0.508582,-0.518898,-0.492786,-0.510033,-0.490046,-0.475378,-0.529052,-0.470704,-0.468931,-0.499072,-0.495849,-0.535661,-0.496332,-0.527924,-0.540658,-0.537918,-0.523411,-0.516641,-0.489563,-0.539046,-0.544687,-0.530987,-0.474572,-0.480053,-0.514546,-0.520187,-0.535339,-0.466836,-0.533888,-0.516641,-0.536789,-0.498589,-0.502296,-0.515352,-0.533727,-0.490368,-0.497783,-0.527763,-0.470382,-0.491980,-0.479247,-0.501974,-0.474250,-0.471026,-0.523572,-0.524862,-0.476990,-0.494559,-0.532115,-0.531470,-0.507293,-0.517770,-0.521155,-0.477151,-0.473122,-0.471671,-0.468286,-0.493109,-0.490691,-0.480697,-0.437823,-0.466674,-0.471671,-0.494559,-0.468125,-0.487951,-0.457326,-0.464096,-0.463290,-0.463128,-0.503747,-0.480214,-0.468447,-0.486661,-0.474895,-0.481826,-0.471671,-0.430731,-0.488918,-0.446043,-0.483760,-0.454586,-0.446688,-0.490207,-0.443142,-0.494882,-0.488757,-0.455069,-0.452974,-0.445076,-0.428152,-0.449267,-0.450073,-0.440563,-0.427346,-0.486984,-0.438790,-0.482632,-0.487467,-0.469898,-0.454263,-0.471994,-0.474734,-0.480375,-0.466030,-0.429119,-0.428796,-0.416546,-0.437823,-0.456198,-0.435566,-0.440885,-0.437984,-0.432665,-0.480536,-0.451684,-0.484405,-0.470221,-0.439757,-0.447010,-0.494398,-0.467158,-0.485694,-0.456036,-0.484405,-0.507776,-0.480053,-0.460711,-0.512934,-0.497461,-0.521477,-0.488757,-0.531954,-0.530826,-0.494398,-0.518898,-0.535339,-0.515997,-0.488273,-0.499878,-0.520832,-0.531309,-0.499878,-0.513418,-0.538401,-0.497461,-0.495688,-0.509549,-0.551296,-0.497944,-0.511322,-0.513257,-0.507615,-0.516641,-0.508421,-0.509710,-0.544365,-0.520510,-0.502780,-0.528891,-0.499072,-0.555970,-0.551296,-0.559194,-0.553552,-0.542592,-0.517125,-0.516480,-0.540174,-0.560967,-0.525184,-0.508260,-0.521477,-0.511161,-0.531470,-0.513901,-0.525668,-0.497622,-0.510355,-0.499556,-0.513901,-0.548072,-0.517931,-0.519381,-0.561128,-0.554197,-0.521155,-0.540335,-0.514546,-0.476507,-0.510678,-0.489401,-0.433632,-0.434277,-0.453941,-0.427023,-0.394787,-0.385277,-0.336599,-0.362711,-0.314678,-0.296948,-0.288244,-0.313389,-0.259070,-0.283892,-0.261971,-0.264228,-0.238922,-0.252784,-0.271481,-0.296142,-0.277606,-0.329507,-0.308715,-0.330152,-0.363517,-0.400750,-0.457487,-0.548878,-0.600940,-0.648812,-0.716670,-0.775825,-0.790654,-0.832400,-0.863347,-0.909607,-0.979400,-1.012120,-1.001160,-1.004867,-1.059025,-1.043712,-1.083202,-1.028239,-0.999064,-1.021952,-1.006801,-0.925081,-0.908157,-0.913476,-0.882528,-0.882851,-0.857867,-0.854966,-0.797101,-0.780499,-0.774052,-0.758578,-0.774374,-0.780660,-0.718443,-0.693137,-0.687174,-0.693137,-0.669927,-0.623345,-0.576440,-0.629470,-0.622539,-0.575796,-0.571444,-0.563707,-0.579019,-0.528891,-0.563062,-0.550168,-0.504230,-0.495526,-0.477957,-0.519543,-0.462484,-0.462967,-0.465546,-0.471026,-0.485855,-0.452974,-0.444109,-0.438790,-0.460227,-0.432020,-0.437339,-0.477151,-0.434438,-0.423961,-0.428474,-0.425895,-0.460388,-0.442497,-0.407198,-0.447977,-0.423155,-0.453619,-0.395593,-0.408326,-0.413645,-0.454263,-0.442336,-0.413645,-0.454747,-0.462645,-0.420898,-0.445398,-0.448783,-0.397527,-0.436533,-0.400750,-0.379958,-0.441530,-0.436694,-0.384471,-0.439918,-0.427829,-0.442497,-0.418158,-0.448461,-0.413806,-0.450717,-0.438306,-0.407842,-0.405747,-0.387050,-0.383020,-0.391241,-0.414451,-0.399783,-0.437984,-0.406714,-0.408648,-0.413323,-0.425411,-0.429441,-0.394787,-0.419448,-0.438951,-0.406875,-0.399300,-0.440402,-0.425089,-0.427507,-0.398655,-0.388984,-0.430892,-0.420737,-0.396237,-0.393820,-0.423316,-0.443464,-0.407520,-0.437984,-0.389629,-0.406231,-0.398655,-0.388339,-0.384149,-0.444592,-0.401556,-0.435566,-0.375928,-0.395109,-0.393820,-0.393336,-0.393658,-0.409454,-0.431859,-0.421060,-0.387050,-0.385922,-0.407681,-0.391241,-0.377862,-0.382053,-0.382214,-0.364162,-0.437178,-0.372866,-0.417997,-0.378346,-0.409938,-0.373188,-0.379152,-0.369481,-0.405586,-0.356747,-0.397204,-0.416708,-0.412356,-0.358682,-0.407359,-0.356747,-0.349655,-0.412033,-0.336599,-0.386727,-0.370126,-0.398816,-0.401556,-0.358843,-0.359971,-0.359487,-0.383826,-0.366257,-0.398171,-0.385438,-0.356103,-0.384471,-0.364968,-0.342886,-0.343691,-0.316129,-0.355941,-0.326928,-0.333053,-0.340468,-0.383181,-0.337244,-0.324833,-0.342080,-0.381086,-0.380764,-0.330958,-0.328540,-0.370448,-0.330313,-0.366902,-0.349333,-0.324027,-0.332892,-0.320965,-0.340790,-0.341918,-0.365935,-0.327573,-0.322415,-0.340307,-0.329830,-0.368030,-0.375606,-0.321126,-0.318547,-0.327734,-0.307264,-0.350784,-0.352879,-0.345787,-0.333537,-0.355458,-0.335632,-0.375606,-0.373349,-0.359326,-0.370770,-0.380280,-0.351267,-0.342402,-0.369320,-0.342724,-0.367224,-0.359971,-0.341435,-0.346754,-0.354813,-0.402040,-0.375445,-0.372543,-0.397849,-0.377701,-0.426540,-0.379474,-0.371899,-0.386405,-0.427990,-0.422994,-0.419770,-0.368514,-0.381086,-0.414935,-0.409938,-0.421221,-0.419125,-0.467964,-0.472316,-0.432987,-0.466191,-0.457165,-0.488595,-0.451362,-0.501974,-0.472316,-0.492464,-0.487790,-0.442013,-0.506164,-0.463773,-0.482470,-0.495365,-0.484405,-0.533888,-0.535500,-0.499072,-0.551618,-0.541947,-0.505520,-0.511645,-0.506648,-0.501812,-0.507776,-0.481987,-0.542270,-0.539529,-0.550812,-0.528891,-0.522122,-0.569026,-0.550812,-0.536145,-0.549845,-0.569510,-0.582082,-0.583855,-0.558388,-0.569510,-0.529536,-0.524378,-0.528730,-0.540335,-0.522928,-0.534855,-0.591914,-0.546138,-0.549845,-0.583049,-0.552263,-0.565319,-0.552102,-0.556454,-0.582404,-0.545493,-0.557421,-0.560806,-0.571121,-0.535339,-0.522283,-0.540980,-0.539046,-0.536145,-0.548717,-0.557582,-0.563223,-0.604003,-0.549684,-0.584661,-0.558871,-0.578536,-0.553230,-0.573862,-0.515352,-0.538562,-0.542753,-0.526796,-0.567737,-0.547105,-0.569510,-0.583694,-0.530664,-0.549845,-0.584338,-0.573056,-0.545654,-0.543559,-0.535661,-0.536145,-0.521316,-0.516158,-0.579825,-0.512289,-0.528730,-0.557260,-0.527118,-0.542108,-0.542914,-0.535016,-0.557098,-0.577085,-0.524701,-0.537273,-0.533566,-0.520832,-0.589174,-0.545332,-0.542431,-0.549362,-0.509872,-0.571283,-0.540335,-0.572250,-0.564996,-0.575957,-0.562579,-0.577408,-0.575473,-0.543881,-0.530020,-0.525668,-0.539691,-0.512451,-0.543720,-0.515835,-0.549039,-0.550812,-0.558710,-0.514224,-0.533888,-0.509388,-0.515997,-0.534210,-0.517608,-0.518898,-0.528891,-0.526474,-0.519381,-0.511806,-0.505036,-0.513901,-0.544848,-0.520993,-0.535177,-0.555003,-0.560483,-0.561289,-0.517931,-0.523895,-0.523089,-0.557260,-0.546622,-0.555164,-0.527602,-0.519059,-0.501168,-0.549845,-0.537918,-0.506003,-0.538240,-0.531631,-0.509710,-0.554036,-0.513418,-0.518414,-0.539207,-0.518414,-0.512773,-0.523572,-0.511322,-0.566447,-0.512612,-0.551457,-0.509388,-0.535822,-0.542753,-0.473605,-0.533404,-0.549684,-0.513418,-0.523572,-0.513740,-0.506809,-0.512289,-0.557098,-0.516641,-0.525990,-0.507454,-0.545493,-0.545977,-0.525990,-0.503585,-0.539529,-0.522444,-0.509227,-0.502457,-0.505197,-0.520993,-0.503102,-0.551779,-0.508905,-0.549200,-0.510194,-0.511000,-0.494237,-0.545493,-0.499072,-0.484888,-0.493914,-0.481665,-0.505036,-0.505842
